# dimensionless total lensed [l(l+1)/2pi] C_l's
# for l=2 to 2500, i.e. number of multipoles equal to 2499
#
# -> if you prefer output in CAMB/HealPix/LensPix units/order, set 'format' to 'camb' in input file
# -> if you don't want to see such a header, set 'headers' to 'no' in input file
# -> for CMB lensing (phi), these are C_l^phi-phi for the lensing potential.
#    Remember the conversion factors:
#    C_l^dd (deflection) = l(l+1) C_l^phi-phi
#    C_l^gg (shear/convergence) = 1/4 (l(l+1))^2 C_l^phi-phi
#
# 1:l     2:TT                     3:EE                     4:TE                     5:BB                     6:phiphi                 7:TPhi                   8:Ephi               
    2       1.381341360044e-10       4.176086469834e-15       3.515761296148e-13       2.323325391253e-19       8.285702990388e-09       4.560794745592e-10      -1.840600392277e-12 
    3       1.306088248813e-10       5.351275071557e-15       3.951628959486e-13       4.647554966388e-19       5.086963412029e-09       3.225653754844e-10      -1.393870183184e-12 
    4       1.235436697229e-10       4.627240284911e-15       3.695432148419e-13       7.747918087923e-19       3.522982991531e-09       2.438408258398e-10      -9.122244530945e-13 
    5       1.182602862417e-10       3.085974758620e-15       3.147003975597e-13       1.162557578493e-18       2.621516323581e-09       1.923923568690e-10      -5.067134266253e-13 
    6       1.146396052472e-10       1.725603539200e-15       2.534557977982e-13       1.628194193916e-18       2.042590224048e-09       1.563935345111e-10      -2.080082702410e-13 
    7       1.122822552027e-10       9.335020974260e-16       1.990061049613e-13       2.171865982999e-18       1.644358489577e-09       1.299932281286e-10      -1.760735938285e-14 
    8       1.109081780647e-10       6.038238527735e-16       1.571242787430e-13       2.793757540786e-18       1.356592456031e-09       1.099887159499e-10       7.943228706684e-14 
    9       1.102693336039e-10       4.859093387368e-16       1.290900228118e-13       3.494070799462e-18       1.140654998569e-09       9.448216553526e-11       1.064493154818e-13 
   10       1.101354204668e-10       4.150349500597e-16       1.135792999688e-13       4.273021916563e-18       9.737536278289e-10       8.220664947438e-11       8.928875300626e-14 
   11       1.104473797899e-10       3.497983690438e-16       1.079343675026e-13       5.130838060172e-18       8.334433258747e-10       7.302003778061e-11       5.203859504670e-14 
   12       1.110541262360e-10       3.058520968877e-16       1.090982898162e-13       6.067754170780e-18       7.284077190266e-10       6.456655413406e-11       1.227936208605e-14 
   13       1.119051294367e-10       2.941989811392e-16       1.143885385503e-13       7.084009777847e-18       6.421587154818e-10       5.770050502565e-11      -1.799193965270e-14 
   14       1.129526941352e-10       3.068706405841e-16       1.217845410025e-13       8.179845945191e-18       5.703837951090e-10       5.172028443881e-11      -3.451660404899e-14 
   15       1.141840025208e-10       3.321251491001e-16       1.299979705609e-13       9.355502413074e-18       5.099592036134e-10       4.668968153935e-11      -3.750211477638e-14 
   16       1.155242869689e-10       3.674371008658e-16       1.383662039860e-13       1.061121499676e-17       4.585735342153e-10       4.235371116346e-11      -3.091056603056e-14 
   17       1.170006201668e-10       4.183429891964e-16       1.466671952222e-13       1.194721329141e-17       4.144843025662e-10       3.856964460878e-11      -1.993912559218e-14 
   18       1.185499707588e-10       4.902718310852e-16       1.551622584827e-13       1.336371859562e-17       3.762142307593e-10       3.526902131014e-11      -9.474495070366e-15 
   19       1.201836735866e-10       5.835496744447e-16       1.640746115784e-13       1.486094296472e-17       3.431461678221e-10       3.240462441462e-11      -2.117577417643e-15 
   20       1.218944381408e-10       6.961763604517e-16       1.735439660611e-13       1.643908661825e-17       3.140199528886e-10       2.986212807499e-11       4.238919754091e-16 
   21       1.236835736183e-10       8.275163286646e-16       1.835213482153e-13       1.809833907738e-17       2.883777531330e-10       2.759554805133e-11      -1.286532737162e-15 
   22       1.255250767213e-10       9.770827261730e-16       1.938186234866e-13       1.983887646933e-17       2.656025024930e-10       2.554789524756e-11      -5.504545943460e-15 
   23       1.274252910673e-10       1.145045290618e-15       2.041127657788e-13       2.166086429835e-17       2.453895403287e-10       2.371057277202e-11      -1.047674547944e-14 
   24       1.293784272859e-10       1.331619780836e-15       2.139912290646e-13       2.356445429117e-17       2.272775932141e-10       2.206682469809e-11      -1.433573677988e-14 
   25       1.313792961643e-10       1.537020972072e-15       2.231462676447e-13       2.554978772635e-17       2.110211412042e-10       2.059443024982e-11      -1.627002083744e-14 
   26       1.334102720211e-10       1.761618849888e-15       2.313141729120e-13       2.761699328831e-17       1.963021993341e-10       1.925659143620e-11      -1.595360765846e-14 
   27       1.354809510544e-10       2.007044760220e-15       2.384233329419e-13       2.976619466764e-17       1.830445489791e-10       1.804405379706e-11      -1.389854829104e-14 
   28       1.375940055981e-10       2.275555797025e-15       2.444852702151e-13       3.199750348794e-17       1.710876173652e-10       1.694140963212e-11      -1.110843294982e-14 
   29       1.397385085601e-10       2.569433150440e-15       2.495424774949e-13       3.431101951503e-17       1.601411755416e-10       1.592227619698e-11      -8.702997504397e-15 
   30       1.419210599800e-10       2.889768634629e-15       2.536432349275e-13       3.670684318680e-17       1.501449216595e-10       1.498560821545e-11      -7.071250195903e-15 
   31       1.441433778507e-10       3.237187829085e-15       2.568613826345e-13       3.918506695861e-17       1.410246854955e-10       1.413148211032e-11      -6.393858553225e-15 
   32       1.463974154309e-10       3.612262492770e-15       2.592646233221e-13       4.174577453614e-17       1.326362152989e-10       1.335292568219e-11      -6.758749499702e-15 
   33       1.486826398761e-10       4.015929509624e-15       2.607723341748e-13       4.438905125794e-17       1.249338571295e-10       1.264337805840e-11      -7.813600494455e-15 
   34       1.509926769872e-10       4.449216072677e-15       2.612439562549e-13       4.711497704894e-17       1.178494401535e-10       1.199052942136e-11      -8.970633050602e-15 
   35       1.533162306511e-10       4.913112939941e-15       2.605300770256e-13       4.992362582002e-17       1.112775689071e-10       1.137856966721e-11      -9.639031213209e-15 
   36       1.556602696321e-10       5.408521471521e-15       2.585282458949e-13       5.281507341942e-17       1.052012137047e-10       1.080540457698e-11      -9.756148677809e-15 
   37       1.580333953903e-10       5.936282544369e-15       2.551447331242e-13       5.578939233625e-17       9.960135647000e-11       1.027059008344e-11      -9.436628455141e-15 
   38       1.604388691247e-10       6.497185605288e-15       2.502791048509e-13       5.884664961764e-17       9.441902006909e-11       9.770369697064e-12      -8.835497948774e-15 
   39       1.628756932220e-10       7.091956687782e-15       2.438485385404e-13       6.198690738597e-17       8.957654537015e-11       9.299461597642e-12      -8.127030707409e-15 
   40       1.653438835578e-10       7.721227027276e-15       2.358719663099e-13       6.521022455858e-17       8.505911742293e-11       8.857920020051e-12      -7.425423801626e-15 
   41       1.678399044399e-10       8.385547218584e-15       2.264137818706e-13       6.851665574497e-17       8.085486644403e-11       8.446085544093e-12      -6.842053737526e-15 
   42       1.703545779369e-10       9.085389918155e-15       2.155628713725e-13       7.190625085395e-17       7.693054142058e-11       8.062531377191e-12      -6.508378829489e-15 
   43       1.728775461948e-10       9.821211206186e-15       2.033990348672e-13       7.537905299884e-17       7.324381083107e-11       7.704764596764e-12      -6.535351925269e-15 
   44       1.754135607113e-10       1.059366830488e-14       1.898764291380e-13       7.893509129903e-17       6.978900464002e-11       7.371961456505e-12      -6.873839984145e-15 
   45       1.779703900713e-10       1.140346208379e-14       1.749061370606e-13       8.257438592897e-17       6.656260617675e-11       7.062821483158e-12      -7.412600738996e-15 
   46       1.805540747327e-10       1.225127669541e-14       1.583871896304e-13       8.629694999671e-17       6.354951813896e-11       6.774685158447e-12      -8.014763615570e-15 
   47       1.831687196968e-10       1.313777920317e-14       1.402057499333e-13       9.010278946422e-17       6.072215967321e-11       6.503432050658e-12      -8.516327987089e-15 
   48       1.858164792618e-10       1.406353124683e-14       1.202577278732e-13       9.399190042370e-17       5.804895796704e-11       6.244670742795e-12      -8.770992501843e-15 
   49       1.884979899758e-10       1.502869546219e-14       9.852606666814e-14       9.796426020462e-17       5.552476036820e-11       5.997942952761e-12      -8.803090247790e-15 
   50       1.912117035113e-10       1.603324566541e-14       7.502384044042e-14       1.020198336230e-16       5.314744375245e-11       5.763529481801e-12      -8.695183971019e-15 
   51       1.939535125681e-10       1.707704284970e-14       4.977309566679e-14       1.061585751971e-16       5.090885531468e-11       5.541226811810e-12      -8.546339818846e-15 
   52       1.967165533431e-10       1.815983032540e-14       2.280523059547e-14       1.103804289328e-16       4.879438896130e-11       5.330311144904e-12      -8.472989424667e-15 
   53       1.994938737690e-10       1.928135236064e-14      -5.852485073458e-15       1.146853299027e-16       4.678757219531e-11       5.129850280936e-12      -8.579089478663e-15 
   54       2.022876984284e-10       2.044175710684e-14      -3.622229405272e-14       1.190732099516e-16       4.488618658863e-11       4.939816178587e-12      -8.855607586671e-15 
   55       2.051022017797e-10       2.164128881236e-14      -6.834157647009e-14       1.235439930844e-16       4.308955428646e-11       4.760195807521e-12      -9.256692408627e-15 
   56       2.079407752929e-10       2.288017370206e-14      -1.022502087975e-13       1.280975936643e-16       4.139368163665e-11       4.590647457110e-12      -9.727698135397e-15 
   57       2.108059500778e-10       2.415862029549e-14      -1.379907655549e-13       1.327339162741e-16       3.979104566561e-11       4.430479360404e-12      -1.020475925647e-14 
   58       2.136993195118e-10       2.547681972518e-14      -1.756087210143e-13       1.374528555761e-16       3.827038055421e-11       4.278628318105e-12      -1.061436532768e-14 
   59       2.166218542220e-10       2.683482811801e-14      -2.151397064076e-13       1.422543050507e-16       3.681977866328e-11       4.133947642242e-12      -1.089090136186e-14 
   60       2.195751081755e-10       2.823218111999e-14      -2.565673677679e-13       1.471381858967e-16       3.543731951927e-11       3.996197622579e-12      -1.103499149895e-14 
   61       2.225601564330e-10       2.966819025602e-14      -2.998560605151e-13       1.521044246075e-16       3.412253620883e-11       3.865247705693e-12      -1.106797701492e-14 
   62       2.255771646582e-10       3.114204939139e-14      -3.449627012059e-13       1.571529448426e-16       3.287321876008e-11       3.740776731203e-12      -1.101532202876e-14 
   63       2.286253250464e-10       3.265283105214e-14      -3.918365304415e-13       1.622836675889e-16       3.168531297615e-11       3.622262041156e-12      -1.090679727438e-14 
   64       2.317027922522e-10       3.419948274551e-14      -4.404188757753e-13       1.674965113221e-16       3.055281926862e-11       3.508968589415e-12      -1.077666387244e-14 
   65       2.348075974408e-10       3.578094160202e-14      -4.906557333905e-13       1.727914049748e-16       2.946944809015e-11       3.400151064787e-12      -1.065612916087e-14 
   66       2.379407593520e-10       3.739651478638e-14      -5.425391427084e-13       1.781683296690e-16       2.843422095850e-11       3.295734475818e-12      -1.054844438000e-14 
   67       2.411037195182e-10       3.904557331145e-14      -5.960741762715e-13       1.836272861365e-16       2.744687829294e-11       3.195758659984e-12      -1.044884603453e-14 
   68       2.442973862540e-10       4.072744046251e-14      -6.512670133675e-13       1.891682832028e-16       2.650617642602e-11       3.100173148373e-12      -1.035178668322e-14 
   69       2.475220979444e-10       4.244139142731e-14      -7.081250615027e-13       1.947913383065e-16       2.560983557268e-11       3.008832233493e-12      -1.025090254461e-14 
   70       2.507775863332e-10       4.418665292620e-14      -7.666570778773e-13       2.004964780192e-16       2.475448779946e-11       2.921490037082e-12      -1.013898110266e-14 
   71       2.540629398113e-10       4.596240284224e-14      -8.268732908598e-13       2.062837385653e-16       2.393562499364e-11       2.837795577925e-12      -1.000792871245e-14 
   72       2.573771884210e-10       4.776773515658e-14      -8.887770366159e-13       2.121531729825e-16       2.314875846406e-11       2.757387837156e-12      -9.851183504005e-15 
   73       2.607212704521e-10       4.960154778461e-14      -9.523375405269e-13       2.181048730407e-16       2.239327105689e-11       2.680213040232e-12      -9.671562282006e-15 
   74       2.640963787480e-10       5.146263244126e-14      -1.017512106364e-12       2.241389524891e-16       2.166921386808e-11       2.606259647539e-12      -9.474868309214e-15 
   75       2.675033503013e-10       5.334970628581e-14      -1.084254067198e-12       2.302555414485e-16       2.097613617332e-11       2.535461149014e-12      -9.267602501194e-15 
   76       2.709426437374e-10       5.526141075986e-14      -1.152512713150e-12       2.364547870823e-16       2.031306106008e-11       2.467693415008e-12      -9.056986860713e-15 
   77       2.744143167964e-10       5.719631042531e-14      -1.222233219155e-12       2.427368542678e-16       1.967846105952e-11       2.402772047141e-12      -8.850987912139e-15 
   78       2.779180038164e-10       5.915289180239e-14      -1.293356572714e-12       2.491019262677e-16       1.907023377853e-11       2.340449729166e-12      -8.658340135844e-15 
   79       2.814528932157e-10       6.112956220756e-14      -1.365819501653e-12       2.555502054018e-16       1.848567753169e-11       2.280413577821e-12      -8.488569402605e-15 
   80       2.850181708444e-10       6.312470098339e-14      -1.439559826077e-12       2.620819072251e-16       1.792216238798e-11       2.222362653674e-12      -8.349748423158e-15 
   81       2.886144882470e-10       6.513682599028e-14      -1.514533743569e-12       2.686972404236e-16       1.737933113003e-11       2.166261823913e-12      -8.241262631093e-15 
   82       2.922427094748e-10       6.716445404276e-14      -1.590701428016e-12       2.753964246365e-16       1.685723783206e-11       2.112127357256e-12      -8.159824877220e-15 
   83       2.959034541898e-10       6.920605089700e-14      -1.668021899804e-12       2.821796971812e-16       1.635567508206e-11       2.059949533059e-12      -8.101613549846e-15 
   84       2.995970837741e-10       7.126003105894e-14      -1.746453054020e-12       2.890473136051e-16       1.587416249173e-11       2.009691476612e-12      -8.062254009450e-15 
   85       3.033236874400e-10       7.332475759254e-14      -1.825951688659e-12       2.959995482356e-16       1.541193520659e-11       1.961287994448e-12      -8.036800023373e-15 
   86       3.070830683400e-10       7.539854192799e-14      -1.906473532827e-12       3.030366947325e-16       1.496793241595e-11       1.914644409641e-12      -8.019715200492e-15 
   87       3.108747296762e-10       7.747964366988e-14      -1.987973274947e-12       3.101590666381e-16       1.454078586300e-11       1.869635397113e-12      -8.004854425907e-15 
   88       3.146978608110e-10       7.956627040543e-14      -2.070404590963e-12       3.173669979289e-16       1.412880835476e-11       1.826103818934e-12      -7.985445295619e-15 
   89       3.185516480267e-10       8.165660263058e-14      -2.153718713354e-12       3.246608380757e-16       1.373039558302e-11       1.783899508162e-12      -7.955541579399e-15 
   90       3.224362929523e-10       8.374887342759e-14      -2.237859819452e-12       3.320409351353e-16       1.334532886981e-11       1.743005131515e-12      -7.914685374291e-15 
   91       3.263521290473e-10       8.584130099104e-14      -2.322768968301e-12       3.395076510095e-16       1.297365656179e-11       1.703428016456e-12      -7.863945488529e-15 
   92       3.302993022718e-10       8.793206480450e-14      -2.408385501701e-12       3.470613671621e-16       1.261529368746e-11       1.665161401962e-12      -7.804513956814e-15 
   93       3.342777620607e-10       9.001930582505e-14      -2.494647050553e-12       3.547024850879e-16       1.227001665922e-11       1.628183872302e-12      -7.737709527854e-15 
   94       3.382872522969e-10       9.210112666774e-14      -2.581489541207e-12       3.624314267815e-16       1.193745797523e-11       1.592458790824e-12      -7.664981151904e-15 
   95       3.423273022850e-10       9.417559179011e-14      -2.668847201797e-12       3.702486352064e-16       1.161710092140e-11       1.557933733734e-12      -7.587911468303e-15 
   96       3.463972177248e-10       9.624072767673e-14      -2.756652568596e-12       3.781545747633e-16       1.130827427336e-11       1.524539923883e-12      -7.508220293013e-15 
   97       3.504960716850e-10       9.829452302363e-14      -2.844836492353e-12       3.861497317596e-16       1.101014699839e-11       1.492191664547e-12      -7.427768106156e-15 
   98       3.546226955764e-10       1.003349289229e-13      -2.933328144640e-12       3.942346148781e-16       1.072172295735e-11       1.460785773210e-12      -7.348559539554e-15 
   99       3.587759689104e-10       1.023599059797e-13      -3.022056405983e-12       4.024097563787e-16       1.044206921742e-11       1.430226203381e-12      -7.272341418540e-15 
  100       3.629557549137e-10       1.043675728809e-13      -3.110954240898e-12       4.106757148865e-16       1.017104934143e-11       1.400503113249e-12      -7.199324385741e-15 
  101       3.671620812834e-10       1.063560793102e-13      -3.199954957212e-12       4.190330738714e-16       9.908684603649e-12       1.371623996664e-12      -7.129285842748e-15 
  102       3.713948478886e-10       1.083235616375e-13      -3.288990902355e-12       4.274824414220e-16       9.654927209857e-12       1.343589236625e-12      -7.061957832968e-15 
  103       3.756538213656e-10       1.102681436713e-13      -3.377993486459e-12       4.360244507238e-16       9.409657830960e-12       1.316391844376e-12      -6.997025614669e-15 
  104       3.799386297130e-10       1.121879374130e-13      -3.466893205447e-12       4.446597605364e-16       9.172683136583e-12       1.290017198499e-12      -6.934126234026e-15 
  105       3.842487568873e-10       1.140810438098e-13      -3.555619664130e-12       4.533890556715e-16       8.943733328667e-12       1.264442784005e-12      -6.872847098161e-15 
  106       3.885835373974e-10       1.159455535080e-13      -3.644101599295e-12       4.622130474706e-16       8.722459675065e-12       1.239637931426e-12      -6.812724548196e-15 
  107       3.929421509006e-10       1.177795476067e-13      -3.732266902803e-12       4.711324742829e-16       8.508432043145e-12       1.215563555908e-12      -6.753242432287e-15 
