# dimensionless total [l(l+1)/2pi] C_l's
# for l=2 to 3000, i.e. number of multipoles equal to 2999
#
# -> if you prefer output in CAMB/HealPix/LensPix units/order, set 'format' to 'camb' in input file
# -> if you don't want to see such a header, set 'headers' to 'no' in input file
# -> for CMB lensing (phi), these are C_l^phi-phi for the lensing potential.
#    Remember the conversion factors:
#    C_l^dd (deflection) = l(l+1) C_l^phi-phi
#    C_l^gg (shear/convergence) = 1/4 (l(l+1))^2 C_l^phi-phi
#
# 1:l     2:TT                     3:EE                     4:TE                     5:BB                     6:phiphi                 7:TPhi                   8:Ephi               
    2       1.369872446801e-10       4.156480405755e-15       3.514357480720e-13       0.000000000000e+00       8.291408398230e-09       4.501793995546e-10      -1.835980497456e-12 
    3       1.297015755455e-10       5.336164455915e-15       3.947151423061e-13       0.000000000000e+00       5.097102239623e-09       3.187607750104e-10      -1.391741247478e-12 
    4       1.228001994690e-10       4.624229477757e-15       3.690800302204e-13       0.000000000000e+00       3.530323108708e-09       2.410884929239e-10      -9.124738112759e-13 
    5       1.176261413194e-10       3.090707416078e-15       3.143728873124e-13       0.000000000000e+00       2.626876135202e-09       1.902119437852e-10      -5.084410800279e-13 
    6       1.140716319134e-10       1.730472072157e-15       2.532684731902e-13       0.000000000000e+00       2.046654527346e-09       1.546091415144e-10      -2.102301243232e-13 
    7       1.118088051718e-10       9.346812411860e-16       1.989141728325e-13       0.000000000000e+00       1.647422865284e-09       1.285872238795e-10      -1.956859368542e-14 
    8       1.104835101947e-10       6.018002634827e-16       1.570800334163e-13       0.000000000000e+00       1.358977834374e-09       1.088903768130e-10       7.816167844194e-14 
    9       1.098657100292e-10       4.825777787001e-16       1.290309774949e-13       0.000000000000e+00       1.142616103172e-09       9.352752592167e-11       1.059799114277e-13 
   10       1.097678801647e-10       4.112931077247e-16       1.134434802151e-13       0.000000000000e+00       9.754308001192e-10       8.129935634587e-11       8.949854314533e-14 
   11       1.100728375695e-10       3.452868564096e-16       1.077154787386e-13       0.000000000000e+00       8.346571494089e-10       7.217302736270e-11       5.261667715440e-14 
   12       1.107261404785e-10       2.999548156861e-16       1.088444274904e-13       0.000000000000e+00       7.294563250413e-10       6.395148299299e-11       1.303990616820e-14 
   13       1.116076956179e-10       2.867522235018e-16       1.140860595024e-13       0.000000000000e+00       6.430737206366e-10       5.714229596140e-11      -1.746042892527e-14 
   14       1.126400311549e-10       2.980261279722e-16       1.214372508207e-13       0.000000000000e+00       5.711892158295e-10       5.119047254778e-11      -3.428393337134e-14 
   15       1.138493653621e-10       3.218932437368e-16       1.296336098102e-13       0.000000000000e+00       5.106735829233e-10       4.617762549893e-11      -3.758116052122e-14 
   16       1.152439371140e-10       3.556373337789e-16       1.379536466998e-13       0.000000000000e+00       4.592114912772e-10       4.192972859178e-11      -3.121040637625e-14 
   17       1.166934876117e-10       4.046015573923e-16       1.462740836455e-13       0.000000000000e+00       4.150574065978e-10       3.826399949592e-11      -2.031078156760e-14 
   18       1.182453287022e-10       4.742662262525e-16       1.547679498795e-13       0.000000000000e+00       3.767316018853e-10       3.497318920837e-11      -9.861700439776e-15 
   19       1.199149610830e-10       5.651323983428e-16       1.636316193017e-13       0.000000000000e+00       3.436160622121e-10       3.205319398625e-11      -2.462525230372e-15 
   20       1.216332210451e-10       6.753790105381e-16       1.730279188677e-13       0.000000000000e+00       3.144483786643e-10       2.950221034802e-11       2.143305093778e-16 
   21       1.234139739975e-10       8.042644315042e-16       1.829420721337e-13       0.000000000000e+00       2.887699373127e-10       2.728257895296e-11      -1.294551769679e-15 
   22       1.252649571746e-10       9.511193090651e-16       1.932211770515e-13       0.000000000000e+00       2.659627546013e-10       2.530463518578e-11      -5.305661434877e-15 
   23       1.271760952317e-10       1.116203055780e-15       2.035323491179e-13       0.000000000000e+00       2.457216853886e-10       2.352398626199e-11      -1.013859368089e-14 
   24       1.291133970077e-10       1.299884699299e-15       2.134378874919e-13       0.000000000000e+00       2.275847389550e-10       2.189218422076e-11      -1.399406606814e-14 
   25       1.310883401419e-10       1.502284081465e-15       2.226247626283e-13       0.000000000000e+00       2.113060018984e-10       2.040711100503e-11      -1.603670074832e-14 
   26       1.331123075682e-10       1.723598643955e-15       2.308294770820e-13       0.000000000000e+00       1.965669983561e-10       1.906765205690e-11      -1.587861623680e-14 
   27       1.351928842456e-10       1.965415537303e-15       2.379774313751e-13       0.000000000000e+00       1.832913809068e-10       1.786772182225e-11      -1.397927586999e-14 
   28       1.373182265008e-10       2.229990911781e-15       2.440754496100e-13       0.000000000000e+00       1.713183356852e-10       1.678335206595e-11      -1.128147858581e-14 
   29       1.394625356870e-10       2.519623365906e-15       2.491637108914e-13       0.000000000000e+00       1.603572107767e-10       1.577917812928e-11      -8.850183075742e-15 
   30       1.416329363043e-10       2.835479209564e-15       2.533029632317e-13       0.000000000000e+00       1.503476078471e-10       1.485393036141e-11      -7.103919195909e-15 
   31       1.438376276954e-10       3.178295425313e-15       2.565872782930e-13       0.000000000000e+00       1.412152426624e-10       1.401068008839e-11      -6.291561393940e-15 
   32       1.460757204232e-10       3.548751709380e-15       2.590995917340e-13       0.000000000000e+00       1.328156528473e-10       1.324514718924e-11      -6.571126939323e-15 
   33       1.483494399522e-10       3.947774730226e-15       2.607345386918e-13       0.000000000000e+00       1.251031156553e-10       1.254872532306e-11      -7.597378101334e-15 
   34       1.506540719459e-10       4.376334974166e-15       2.613082032360e-13       0.000000000000e+00       1.180093627064e-10       1.190508319783e-11      -8.767801094430e-15 
   35       1.529791317269e-10       4.835353777135e-15       2.606319272003e-13       0.000000000000e+00       1.114288505150e-10       1.129488781781e-11      -9.474165859838e-15 
   36       1.553278071765e-10       5.325668957099e-15       2.586177626280e-13       0.000000000000e+00       1.053445238445e-10       1.071779882267e-11      -9.643057197738e-15 
   37       1.577026845881e-10       5.848049735169e-15       2.552080416221e-13       0.000000000000e+00       9.973733730913e-11       1.017731954401e-11      -9.378455229146e-15 
   38       1.600996535495e-10       6.403199700344e-15       2.503476115237e-13       0.000000000000e+00       9.454823256638e-11       9.674658222091e-12      -8.822139345259e-15 
   39       1.625116997117e-10       6.991771720021e-15       2.439947096624e-13       0.000000000000e+00       8.969944405104e-11       9.209036201584e-12      -8.136109747559e-15 
   40       1.649436402669e-10       7.614430485420e-15       2.361577315153e-13       0.000000000000e+00       8.517613500783e-11       8.779335556502e-12      -7.435826600248e-15 
   41       1.674011731639e-10       8.271803241676e-15       2.268712182200e-13       0.000000000000e+00       8.096641777584e-11       8.382602619067e-12      -6.838896989499e-15 
   42       1.698863871778e-10       8.964458642799e-15       2.161871322165e-13       0.000000000000e+00       7.703699462144e-11       8.013342341709e-12      -6.484723345298e-15 
   43       1.723990372679e-10       9.692939068966e-15       2.041516907428e-13       0.000000000000e+00       7.334547533375e-11       7.665227998826e-12      -6.492054365302e-15 
   44       1.749417894281e-10       1.045787750876e-14       1.907249734633e-13       0.000000000000e+00       6.988618185128e-11       7.337352210279e-12      -6.812860234549e-15 
   45       1.775159398169e-10       1.125991150815e-14       1.758378568759e-13       0.000000000000e+00       6.665559296739e-11       7.029580006961e-12      -7.335001814345e-15 
   46       1.801195997842e-10       1.209964965225e-14       1.594133993170e-13       0.000000000000e+00       6.363859158534e-11       6.740723020479e-12      -7.920495227063e-15 
   47       1.827474039515e-10       1.297767049378e-14       1.413662689828e-13       0.000000000000e+00       6.080756060709e-11       6.468456131848e-12      -8.403997126643e-15 
   48       1.853930364065e-10       1.389447065781e-14       1.216164184041e-13       0.000000000000e+00       5.813088565691e-11       6.210062250236e-12      -8.638408385548e-15 
   49       1.880583324959e-10       1.485029435786e-14       1.001360006447e-13       0.000000000000e+00       5.560340708619e-11       5.965109395174e-12      -8.650420753443e-15 
   50       1.907462411663e-10       1.584525398142e-14       7.691469548153e-14       0.000000000000e+00       5.322299865134e-11       5.733385044142e-12      -8.526214421649e-15 
   51       1.934580863659e-10       1.687937314348e-14       5.194676869482e-14       0.000000000000e+00       5.098149641418e-11       5.514093801004e-12      -8.369035212698e-15 
   52       1.961934189069e-10       1.795258302192e-14       2.523122694919e-14       0.000000000000e+00       4.886427457125e-11       5.305816296230e-12      -8.300083851677e-15 
   53       1.989511668423e-10       1.906479174270e-14      -3.232912987784e-15       0.000000000000e+00       4.685483851844e-11       5.106994978892e-12      -8.426963130249e-15 
   54       2.017337748786e-10       2.021612191753e-14      -3.346260127029e-14       0.000000000000e+00       4.495096702320e-11       4.917632753834e-12      -8.737447012309e-15 
   55       2.045438711999e-10       2.140672780045e-14      -6.547861639115e-14       0.000000000000e+00       4.315198162775e-11       4.737959505881e-12      -9.179944885551e-15 
   56       2.073829705392e-10       2.263672699642e-14      -9.930108797383e-14       0.000000000000e+00       4.145388375031e-11       4.567924861026e-12      -9.693092235938e-15 
   57       2.102513804844e-10       2.390619985961e-14      -1.349495467406e-13       0.000000000000e+00       3.984914088067e-11       4.407179178551e-12      -1.020527966297e-14 
   58       2.131481077863e-10       2.521518889168e-14      -1.724429744806e-13       0.000000000000e+00       3.832647277587e-11       4.255054543155e-12      -1.063418189496e-14 
   59       2.160716927887e-10       2.656361577701e-14      -2.117937781712e-13       0.000000000000e+00       3.687395651295e-11       4.110751817353e-12      -1.090686733004e-14 
   60       2.190231518014e-10       2.795101135598e-14      -2.529879647182e-13       0.000000000000e+00       3.548966928559e-11       3.973995695166e-12      -1.102664978820e-14 
   61       2.220035536590e-10       2.937672176857e-14      -2.960004423291e-13       0.000000000000e+00       3.417314370533e-11       3.844498448045e-12      -1.102095691870e-14 
   62       2.250130907171e-10       3.083998197944e-14      -3.408005387440e-13       0.000000000000e+00       3.292216702566e-11       3.721755462740e-12      -1.092233674219e-14 
   63       2.280510166209e-10       3.233991238430e-14      -3.873518452427e-13       0.000000000000e+00       3.173267984119e-11       3.605033218524e-12      -1.076868431092e-14 
   64       2.311155840738e-10       3.387551541619e-14      -4.356120606521e-13       0.000000000000e+00       3.059867478689e-11       3.493357264411e-12      -1.060346836893e-14 
   65       2.342050066357e-10       3.544578221982e-14      -4.855421273953e-13       0.000000000000e+00       2.951385415709e-11       3.385769927819e-12      -1.046588523528e-14 
   66       2.373207206466e-10       3.705004655555e-14      -5.371362388981e-13       0.000000000000e+00       2.847723832867e-11       3.282193881554e-12      -1.035838768044e-14 
   67       2.404647049191e-10       3.868770000108e-14      -5.903979271573e-13       0.000000000000e+00       2.748856752990e-11       3.182730513926e-12      -1.027266408489e-14 
   68       2.436384847072e-10       4.035808818815e-14      -6.453314334462e-13       0.000000000000e+00       2.654659660167e-11       3.087401941067e-12      -1.019905034497e-14 
   69       2.468430981195e-10       4.206051048763e-14      -7.019418122383e-13       0.000000000000e+00       2.564904289726e-11       2.996146529086e-12      -1.012647477708e-14 
   70       2.500790625324e-10       4.379421969474e-14      -7.602350351322e-13       0.000000000000e+00       2.479253418211e-11       2.908814416224e-12      -1.004240302188e-14 
   71       2.533463410025e-10       4.555842171417e-14      -8.202180947761e-13       0.000000000000e+00       2.397255653360e-11       2.825163035010e-12      -9.932782948528e-15 
   72       2.566447237747e-10       4.735223685419e-14      -8.818912452810e-13       0.000000000000e+00       2.318461547785e-11       2.744926803260e-12      -9.785904714617e-15 
   73       2.599751322207e-10       4.917457580735e-14      -9.452227681635e-13       0.000000000000e+00       2.242809320861e-11       2.668051634757e-12      -9.604961172305e-15 
   74       2.633385056594e-10       5.102423918450e-14      -1.010169527983e-12       0.000000000000e+00       2.170304105531e-11       2.594497560298e-12      -9.397810090011e-15 
   75       2.667353847399e-10       5.289995262542e-14      -1.076684332362e-12       0.000000000000e+00       2.100900786232e-11       2.524165810178e-12      -9.173306327286e-15 
   76       2.701658873312e-10       5.480036560753e-14      -1.144715856374e-12       0.000000000000e+00       2.034501558828e-11       2.456896029697e-12      -8.941336126144e-15 
   77       2.736296844124e-10       5.672405025449e-14      -1.214208566942e-12       0.000000000000e+00       1.970953490528e-11       2.392463494666e-12      -8.712851402387e-15 
   78       2.771259759626e-10       5.866950014488e-14      -1.285102647226e-12       0.000000000000e+00       1.910046079816e-11       2.330576326915e-12      -8.499904036939e-15 
   79       2.806534668513e-10       6.063512912083e-14      -1.357333921015e-12       0.000000000000e+00       1.851508816375e-11       2.270872709799e-12      -8.315680167172e-15 
   80       2.842109003280e-10       6.261932375953e-14      -1.430839571032e-12       0.000000000000e+00       1.795078373386e-11       2.213010512603e-12      -8.171394586418e-15 
   81       2.877988182331e-10       6.462061390310e-14      -1.505576603826e-12       0.000000000000e+00       1.740718991052e-11       2.156960214503e-12      -8.066277381483e-15 
   82       2.914180638943e-10       6.663752970775e-14      -1.581506468590e-12       0.000000000000e+00       1.688436091000e-11       2.102758006584e-12      -7.995902771523e-15 
   83       2.950692381057e-10       6.866855041684e-14      -1.658589579279e-12       0.000000000000e+00       1.638208910466e-11       2.050416844607e-12      -7.955151057769e-15 
   84       2.987526853442e-10       7.071210416326e-14      -1.736785346287e-12       0.000000000000e+00       1.589989351707e-11       1.999925375793e-12      -7.938184768709e-15 
   85       3.024684799853e-10       7.276656777186e-14      -1.816052208143e-12       0.000000000000e+00       1.543700831416e-11       1.951246865605e-12      -7.938424805272e-15 
   86       3.062164125192e-10       7.483026656179e-14      -1.896347663190e-12       0.000000000000e+00       1.499237130135e-11       1.904318124532e-12      -7.948526586014e-15 
   87       3.099959757665e-10       7.690147414899e-14      -1.977628301279e-12       0.000000000000e+00       1.456461241668e-11       1.859048434870e-12      -7.960356192300e-15 
   88       3.138063510943e-10       7.897841224853e-14      -2.059849835448e-12       0.000000000000e+00       1.415204222494e-11       1.815318477508e-12      -7.964966513493e-15 
   89       3.176467356072e-10       8.105927466248e-14      -2.142965414220e-12       0.000000000000e+00       1.375305429106e-11       1.773010627235e-12      -7.954502832012e-15 
   90       3.215174125862e-10       8.314230398647e-14      -2.226920185983e-12       0.000000000000e+00       1.336742971705e-11       1.732107624395e-12      -7.928314153756e-15 
   91       3.254188243523e-10       8.522572662781e-14      -2.311655936351e-12       0.000000000000e+00       1.299521699793e-11       1.692607476309e-12      -7.887761055903e-15 
   92       3.293512376847e-10       8.730772985368e-14      -2.397112737497e-12       0.000000000000e+00       1.263633112842e-11       1.654492871795e-12      -7.834376568805e-15 
   93       3.333147351454e-10       8.938646195583e-14      -2.483228954085e-12       0.000000000000e+00       1.229054829746e-11       1.617730577892e-12      -7.769871226639e-15 
   94       3.373092064034e-10       9.146003241536e-14      -2.569941249195e-12       0.000000000000e+00       1.195750058281e-11       1.582270836582e-12      -7.696138118060e-15 
   95       3.413343395585e-10       9.352651206740e-14      -2.657184590252e-12       0.000000000000e+00       1.163667064564e-11       1.548046761515e-12      -7.615257936850e-15 
   96       3.453896124662e-10       9.558393326587e-14      -2.744892254954e-12       0.000000000000e+00       1.132738642506e-11       1.514973734731e-12      -7.529504032569e-15 
   97       3.494742840610e-10       9.763029004825e-14      -2.832995837204e-12       0.000000000000e+00       1.102881583276e-11       1.482948803384e-12      -7.441347461208e-15 
   98       3.535873856815e-10       9.966353830022e-14      -2.921425253030e-12       0.000000000000e+00       1.073996144751e-11       1.451850076467e-12      -7.353462035836e-15 
   99       3.577279648526e-10       1.016816429029e-13      -3.010110010812e-12       0.000000000000e+00       1.045988913418e-11       1.421565109818e-12      -7.268203976420e-15 
  100       3.618958747864e-10       1.036827264375e-13      -3.098983214410e-12       0.000000000000e+00       1.018846231753e-11       1.392081952689e-12      -7.185955844708e-15 
  101       3.660910811109e-10       1.056649419476e-13      -3.187978140693e-12       0.000000000000e+00       9.925702339885e-12       1.363409936428e-12      -7.106556333340e-15 
  102       3.703134138427e-10       1.076264285603e-13      -3.277027046816e-12       0.000000000000e+00       9.671561376527e-12       1.335551587961e-12      -7.029803438950e-15 
  103       3.745625617716e-10       1.095653122211e-13      -3.366061191474e-12       0.000000000000e+00       9.425919965680e-12       1.308502377894e-12      -6.955453144320e-15 
  104       3.788380668446e-10       1.114797064272e-13      -3.455010856154e-12       0.000000000000e+00       9.188584538543e-12       1.282250468607e-12      -6.883218100537e-15 
  105       3.831393185507e-10       1.133677129627e-13      -3.543805366387e-12       0.000000000000e+00       8.959284949311e-12       1.256776462349e-12      -6.812766309146e-15 
  106       3.874655483048e-10       1.152274226322e-13      -3.632373113004e-12       0.000000000000e+00       8.737672005195e-12       1.232053149337e-12      -6.743719804309e-15 
  107       3.918158238319e-10       1.170569159950e-13      -3.720641573385e-12       0.000000000000e+00       8.523314996442e-12       1.208045255850e-12      -6.675653334961e-15 
