# Matter power spectrum P(k) at redshift z=0
# for k=1.04734e-05 to 5.25455 h/Mpc,
# number of wavenumbers equal to 119
#    1:k (h/Mpc)              2:P (Mpc/h)^3        
       1.047341826243e-05       4.746983025282e+01 
       1.318525239892e-05       5.930165367012e+01 
       1.659924930592e-05       7.408252261927e+01 
       2.089721676792e-05       9.254736023181e+01 
       2.630803722491e-05       1.156142263274e+02 
       3.311985659687e-05       1.444298300561e+02 
       4.169542910477e-05       1.804263516890e+02 
       5.249143525566e-05       2.253922601900e+02 
       6.608280174490e-05       2.815604284553e+02 
       8.319331839921e-05       3.517176082048e+02 
       1.047341826243e-04       4.393398593969e+02 
       1.318525239892e-04       5.487592638105e+02 
       1.659924930592e-04       6.853673875644e+02 
       2.089721676792e-04       8.558602790805e+02 
       2.630803722491e-04       1.068527471912e+03 
       3.311985659687e-04       1.333582364057e+03 
       4.169542910477e-04       1.663522604833e+03 
       5.249143525566e-04       2.073497351183e+03 
       6.608280174490e-04       2.581644997678e+03 
       8.319331839921e-04       3.209343150004e+03 
       1.047341826243e-03       3.981240728971e+03 
       1.318525239892e-03       4.924781885618e+03 
       1.659924930592e-03       6.068692349711e+03 
       2.089721676792e-03       7.440817544580e+03 
       2.630803722491e-03       9.063551173020e+03 
       3.311985659687e-03       1.094752253384e+04 
       4.169542910477e-03       1.308251862689e+04 
       5.249143525566e-03       1.542539443221e+04 
       6.608280174490e-03       1.788602171069e+04 
       8.319331839921e-03       2.031112511738e+04 
       1.047341826243e-02       2.246679323605e+04 
       1.318525239892e-02       2.403178830745e+04 
       1.659924930589e-02       2.461095218902e+04 
       2.089721660966e-02       2.382001158374e+04 
       2.630791517064e-02       2.148384453073e+04 
       3.310278266545e-02       1.795688137776e+04 
       4.112178767552e-02       1.443000388760e+04 
       4.790628827007e-02       1.238844063993e+04 
       5.282242665187e-02       1.137142965980e+04 
       5.687266276680e-02       1.072864383633e+04 
       6.048713924368e-02       1.024052353885e+04 
       6.385726918410e-02       9.815117585052e+03 
       6.708422356736e-02       9.408674635001e+03 
       7.022860457005e-02       8.995189345678e+03 
       7.333018959056e-02       8.565104661621e+03 
       7.641699559410e-02       8.115419384691e+03 
       7.950991500338e-02       7.647993016597e+03 
       8.262529000559e-02       7.172394647666e+03 
       8.577643711185e-02       6.698266493176e+03 
       8.897459779263e-02       6.238365986686e+03 
       9.222955666815e-02       5.803976266970e+03 
       9.555005766204e-02       5.406271143663e+03 
       9.894409227589e-02       5.052957034579e+03 
       1.024191040344e-01       4.748558300404e+03 
       1.059821362664e-01       4.493460237923e+03 
       1.096399405347e-01       4.284140009277e+03 
       1.133990570783e-01       4.113638891192e+03 
       1.172658749375e-01       3.970654495502e+03 
       1.212466770795e-01       3.842814068779e+03 
       1.253476743179e-01       3.715412624641e+03 
       1.295750308144e-01       3.576350722786e+03 
       1.339348832875e-01       3.416427309234e+03 
       1.384333556058e-01       3.232673776108e+03 
       1.430765701509e-01       3.028293397716e+03 
       1.478706571398e-01       2.813382783973e+03 
       1.528217629711e-01       2.601417812361e+03 
       1.579360585777e-01       2.406239207628e+03 
       1.632197487220e-01       2.238750409110e+03 
       1.686790831324e-01       2.103988275432e+03 
       1.743203703668e-01       2.000008918363e+03 
       1.801499952696e-01       1.918197782100e+03 
       1.861744408844e-01       1.846238459202e+03 
       1.924003156767e-01       1.770405114140e+03 
       1.988343869261e-01       1.680166862546e+03 
       2.054836211606e-01       1.573794970784e+03 
       2.123552325365e-01       1.458666271867e+03 
       2.194567401281e-01       1.346872211852e+03 
       2.267960351861e-01       1.248863134319e+03 
       2.343814595738e-01       1.170141102747e+03 
       2.422218968055e-01       1.109239712173e+03 
       2.503268774194e-01       1.057724843837e+03 
       2.587067008331e-01       1.005186363454e+03 
       2.673725763982e-01       9.454587008084e+02 
       2.763367871231e-01       8.793433642114e+02 
       2.856128805309e-01       8.138987667420e+02 
       2.952158924385e-01       7.569601546022e+02 
       3.051626111909e-01       7.107985669552e+02 
       3.154718922124e-01       6.714704779286e+02 
       3.261650358600e-01       6.327210438156e+02 
       3.372662458022e-01       5.908661331150e+02 
       3.488031909594e-01       5.482323491032e+02 
       3.608077021238e-01       5.092224274034e+02 
       3.733166457798e-01       4.759062772669e+02 
       3.863730339830e-01       4.457141858346e+02 
       4.000274529746e-01       4.154797696928e+02 
       4.143399285751e-01       3.850141839843e+02 
       4.293823999897e-01       3.565827274098e+02 
       4.452420566722e-01       3.309658871810e+02 
       4.620259246691e-01       3.067829759929e+02 
       4.798673037780e-01       2.828371085740e+02 
       4.989350181030e-01       2.599716750102e+02 
       5.194470707474e-01       2.388068417256e+02 
       5.416914282045e-01       2.182325957152e+02 
       5.660588009166e-01       1.982917304054e+02 
       5.930965292408e-01       1.792673642813e+02 
       6.236015761018e-01       1.605993132710e+02 
       6.587904759211e-01       1.423557839844e+02 
       7.006315492442e-01       1.241974472192e+02 
       7.525461085357e-01       1.059044411588e+02 
       8.210079804976e-01       8.707422947164e+01 
       9.193237378170e-01       6.734702285296e+01 
       1.074684017740e+00       4.702601770896e+01 
       1.322179872172e+00       2.897310217404e+01 
       1.661679345453e+00       1.682773430650e+01 
       2.091875609933e+00       9.647788849005e+00 
       2.633515156926e+00       5.486307148601e+00 
       3.315399153289e+00       3.096666231115e+00 
       4.173840244316e+00       1.736176794201e+00 
       5.254553548339e+00       9.674291268116e-01 
