# Matter power spectrum P(k) at redshift z=0
# for k=1.04734e-05 to 5.25455 h/Mpc,
# number of wavenumbers equal to 119
#    1:k (h/Mpc)              2:P (Mpc/h)^3        
       1.047341826243e-05       4.746983030022e+01 
       1.318525239892e-05       5.930165376378e+01 
       1.659924930592e-05       7.408252280477e+01 
       2.089721676792e-05       9.254736059942e+01 
       2.630803722491e-05       1.156142270547e+02 
       3.311985659687e-05       1.444298314960e+02 
       4.169542910477e-05       1.804263545405e+02 
       5.249143525566e-05       2.253922658370e+02 
       6.608280174490e-05       2.815604396332e+02 
       8.319331839921e-05       3.517176303354e+02 
       1.047341826243e-04       4.393399032110e+02 
       1.318525239892e-04       5.487593505477e+02 
       1.659924930592e-04       6.853675592487e+02 
       2.089721676792e-04       8.558606188729e+02 
       2.630803722491e-04       1.068528144266e+03 
       3.311985659687e-04       1.333583693972e+03 
       4.169542910477e-04       1.663525234050e+03 
       5.249143525566e-04       2.073502545100e+03 
       6.608280174490e-04       2.581655246455e+03 
       8.319331839921e-04       3.209363341723e+03 
       1.047341826243e-03       3.981280425207e+03 
       1.318525239892e-03       4.924859699768e+03 
       1.659924930592e-03       6.068844298126e+03 
       2.089721676792e-03       7.441112736514e+03 
       2.630803722491e-03       9.064120811495e+03 
       3.311985659687e-03       1.094861228087e+04 
       4.169542910477e-03       1.308458039667e+04 
       5.249143525566e-03       1.542924110924e+04 
       6.608280174490e-03       1.789306959943e+04 
       8.319331839921e-03       2.032375567622e+04 
       1.047341826243e-02       2.248878349096e+04 
       1.318525239892e-02       2.406867823729e+04 
       1.659924930589e-02       2.466969516954e+04 
       2.089721660966e-02       2.390811407816e+04 
       2.630791517064e-02       2.160481927435e+04 
       3.310278266545e-02       1.810751503924e+04 
       4.112178767552e-02       1.460132336146e+04 
       4.790628827007e-02       1.257236121402e+04 
       5.282242665187e-02       1.156370289193e+04 
       5.687266276680e-02       1.092743832956e+04 
       6.048713924368e-02       1.044468370878e+04 
       6.385726918410e-02       1.002253814293e+04 
       6.708422356736e-02       9.617742750622e+03 
       7.022860457005e-02       9.204495133651e+03 
       7.333018959056e-02       8.772546761910e+03 
       7.641699559410e-02       8.318974437549e+03 
       7.950991500338e-02       7.846156152085e+03 
       8.262529000559e-02       7.363422003669e+03 
       8.577643711185e-02       6.881426658819e+03 
       8.897459779263e-02       6.412951960720e+03 
       9.222955666815e-02       5.970137119974e+03 
       9.555005766204e-02       5.563979910113e+03 
       9.894409227589e-02       5.203032902992e+03 
       1.024191040344e-01       4.891696304560e+03 
       1.059821362664e-01       4.630891480300e+03 
       1.096399405347e-01       4.416924904381e+03 
       1.133990570783e-01       4.242254004380e+03 
       1.172658749375e-01       4.096265809834e+03 
       1.212466770795e-01       3.965068372122e+03 
       1.253476743179e-01       3.834626313373e+03 
       1.295750308144e-01       3.691746450292e+03 
       1.339348832875e-01       3.527221515066e+03 
       1.384333556058e-01       3.337694659059e+03 
       1.430765701509e-01       3.127082938665e+03 
       1.478706571398e-01       2.905371029073e+03 
       1.528217629711e-01       2.686481924898e+03 
       1.579360585777e-01       2.484944825874e+03 
       1.632197487220e-01       2.311964608904e+03 
       1.686790831324e-01       2.172680597757e+03 
       1.743203703668e-01       2.065144259642e+03 
       1.801499952696e-01       1.980585243784e+03 
       1.861744408844e-01       1.906023047319e+03 
       1.924003156767e-01       1.827502025228e+03 
       1.988343869261e-01       1.734224716142e+03 
       2.054836211606e-01       1.624167429870e+03 
       2.123552325365e-01       1.505181656384e+03 
       2.194567401281e-01       1.389564211642e+03 
       2.267960351861e-01       1.288329164805e+03 
       2.343814595738e-01       1.206890826972e+03 
       2.422218968055e-01       1.143906181882e+03 
       2.503268774194e-01       1.090587804779e+03 
       2.587067008331e-01       1.036266475337e+03 
       2.673725763982e-01       9.745193430619e+02 
       2.763367871231e-01       9.062561921493e+02 
       2.856128805309e-01       8.386561094423e+02 
       2.952158924385e-01       7.798721323206e+02 
       3.051626111909e-01       7.321960394256e+02 
       3.154718922124e-01       6.915862284675e+02 
       3.261650358600e-01       6.515873686802e+02 
       3.372662458022e-01       6.084365249464e+02 
       3.488031909594e-01       5.644163405316e+02 
       3.608077021238e-01       5.241911836587e+02 
       3.733166457798e-01       4.898029755313e+02 
       3.863730339830e-01       4.586999970079e+02 
       4.000274529746e-01       4.275507053657e+02 
       4.143399285751e-01       3.961314302365e+02 
       4.293823999897e-01       3.668410835337e+02 
       4.452420566722e-01       3.404475971906e+02 
       4.620259246691e-01       3.155371918254e+02 
       4.798673037780e-01       2.908809035114e+02 
       4.989350181030e-01       2.673489128485e+02 
       5.194470707474e-01       2.455520250700e+02 
       5.416914282045e-01       2.243722113392e+02 
       5.660588009166e-01       2.038495287349e+02 
       5.930965292408e-01       1.842792267137e+02 
       6.236015761018e-01       1.650708689862e+02 
       6.587904759211e-01       1.463062231540e+02 
       7.006315492442e-01       1.276320531257e+02 
       7.525461085357e-01       1.088228674056e+02 
       8.210079804976e-01       8.946477406411e+01 
       9.193237378170e-01       6.918932697180e+01 
       1.074684017740e+00       4.830684920554e+01 
       1.322179872172e+00       2.975872284227e+01 
       1.661679345453e+00       1.728273560255e+01 
       2.091875609933e+00       9.908105318099e+00 
       2.633515156926e+00       5.634280256118e+00 
       3.315399153289e+00       3.180025274393e+00 
       4.173840244316e+00       1.782891973712e+00 
       5.254553548339e+00       9.934344673023e-01 
