# Matter power spectrum P(k) at redshift z=0
# for k=1.04206e-05 to 5.30492 h/Mpc,
# number of wavenumbers equal to 556
#    1:k (h/Mpc)              2:P (Mpc/h)^3        
       1.042057218102e-05       3.853149254096e+01 
       2.326965112342e-05       8.372390846407e+01 
       3.616368416807e-05       1.281821236357e+02 
       4.913719191669e-05       1.723552196477e+02 
       6.222526306398e-05       2.165106544021e+02 
       7.546386573317e-05       2.608465767425e+02 
       8.889016871848e-05       3.055359019363e+02 
       1.025428768879e-04       3.507273380848e+02 
       1.164625850317e-04       3.965818904751e+02 
       1.306921544768e-04       4.432406620999e+02 
       1.452771167918e-04       4.908720843272e+02 
       1.602661088541e-04       5.396383838534e+02 
       1.757113433752e-04       5.897149527977e+02 
       1.916691186266e-04       6.412488165450e+02 
       2.082003704669e-04       6.944581285072e+02 
       2.253712687328e-04       7.495380721809e+02 
       2.432538584349e-04       8.067081413214e+02 
       2.619267438096e-04       8.662003688343e+02 
       2.814758098253e-04       9.282745206575e+02 
       3.019949709326e-04       9.932032669207e+02 
       3.235869302973e-04       1.061286908785e+03 
       3.463639240714e-04       1.132848654017e+03 
       3.704484140771e-04       1.208235153976e+03 
       3.959736783330e-04       1.287822272568e+03 
       4.230842321551e-04       1.372008420990e+03 
       4.519359935994e-04       1.461225883684e+03 
       4.826960870599e-04       1.555916013260e+03 
       5.155421603068e-04       1.656549972787e+03 
       5.506610770795e-04       1.763606392824e+03 
       5.882468451648e-04       1.877585623791e+03 
       6.284976558480e-04       1.998938100659e+03 
       6.716119524910e-04       2.128151055464e+03 
       7.177835202431e-04       2.265619952636e+03 
       7.671956976726e-04       2.411736072551e+03 
       8.200149485734e-04       2.566774053896e+03 
       8.763841814427e-04       2.730925364385e+03 
       9.364163367208e-04       2.904271483332e+03 
       1.000188842063e-03       3.086783404619e+03 
       1.067739530145e-03       3.278266827364e+03 
       1.139064503247e-03       3.478420256637e+03 
       1.214118221432e-03       3.686792818428e+03 
       1.292815822649e-03       3.902810844621e+03 
       1.375037409677e-03       4.125821027606e+03 
       1.460633819123e-03       4.355050992269e+03 
       1.549433263665e-03       4.589778494237e+03 
       1.641248223778e-03       4.829190054674e+03 
       1.735882044008e-03       5.072493665563e+03 
       1.833134827638e-03       5.318894575916e+03 
       1.932808383275e-03       5.567642806339e+03 
       2.034710125338e-03       5.818022866426e+03 
       2.138655947732e-03       6.069381705670e+03 
       2.244472169001e-03       6.321106077940e+03 
       2.351996690227e-03       6.572646030623e+03 
       2.461079521249e-03       6.823510451154e+03 
       2.571582825440e-03       7.073255011216e+03 
       2.683380616479e-03       7.321489812307e+03 
       2.796358218588e-03       7.567872235331e+03 
       2.910411578978e-03       7.812100081480e+03 
       3.025446500195e-03       8.053913053335e+03 
       3.141377842005e-03       8.293085538876e+03 
       3.258128727724e-03       8.529423315288e+03 
       3.375629778368e-03       8.762760903629e+03 
       3.493818389279e-03       8.992955859877e+03 
       3.612638057479e-03       9.219891171834e+03 
       3.732037763470e-03       9.443467617609e+03 
       3.851971408043e-03       9.663603197283e+03 
       3.972397302633e-03       9.880233396548e+03 
       4.093277710446e-03       1.009330540081e+04 
       4.214578434858e-03       1.030277933980e+04 
       4.336268451247e-03       1.050862387779e+04 
       4.458319578333e-03       1.071081894430e+04 
       4.580706185188e-03       1.090935662290e+04 
       4.703404930262e-03       1.110422713630e+04 
       4.826394529030e-03       1.129535213048e+04 
       4.949655547142e-03       1.148290376555e+04 
       5.073170216248e-03       1.166675291334e+04 
       5.196922269937e-03       1.184694351916e+04 
       5.320896797515e-03       1.202341636372e+04 
       5.445080113588e-03       1.219643108003e+04 
       5.569459641634e-03       1.236588553355e+04 
       5.694023809978e-03       1.253255756629e+04 
       5.818761958739e-03       1.269496988734e+04 
       5.943664256511e-03       1.285312889474e+04 
       6.068721625672e-03       1.300985201609e+04 
       6.193925675349e-03       1.316183407032e+04 
       6.319268641182e-03       1.330957951917e+04 
       6.444743331135e-03       1.345519224814e+04 
       6.570343076681e-03       1.359699329889e+04 
       6.696061688782e-03       1.373585249574e+04 
       6.821893418135e-03       1.387226261765e+04 
       6.947832919238e-03       1.400408321270e+04 
       7.073875217858e-03       1.413397258865e+04 
       7.200015681550e-03       1.425948529883e+04 
       7.326249992911e-03       1.438236600739e+04 
       7.452574125278e-03       1.450171854648e+04 
       7.578984320627e-03       1.462059150702e+04 
       7.705477069457e-03       1.473345775258e+04 
       7.832049092443e-03       1.484523374038e+04 
       7.958697323705e-03       1.495228336525e+04 
       8.085418895512e-03       1.505955865246e+04 
       8.212211124305e-03       1.516143886828e+04 
       8.339071497896e-03       1.526096662358e+04 
       8.465997663740e-03       1.535788539181e+04 
       8.592987418178e-03       1.545264913320e+04 
       8.720038696556e-03       1.554254064011e+04 
       8.847149564156e-03       1.563141175393e+04 
       8.974318207839e-03       1.571761703828e+04 
       9.101542928364e-03       1.580293925407e+04 
       9.228822133307e-03       1.588448526286e+04 
       9.356154330527e-03       1.596125957688e+04 
       9.483538122139e-03       1.603745414365e+04 
       9.610972198953e-03       1.611243593065e+04 
       9.738455335323e-03       1.618253496017e+04 
       9.865986384394e-03       1.625308227334e+04 
       9.993564273694e-03       1.631805610998e+04 
       1.012118800106e-02       1.638224239774e+04 
       1.024885663085e-02       1.644426857083e+04 
       1.037656929045e-02       1.650388845054e+04 
       1.050432516701e-02       1.656146549183e+04 
       1.063212350445e-02       1.661822244872e+04 
       1.075996360063e-02       1.666983828239e+04 
       1.088784480475e-02       1.672247786990e+04 
       1.101576651498e-02       1.676986649626e+04 
       1.114372817613e-02       1.681672100717e+04 
       1.127172927762e-02       1.686244648508e+04 
       1.139976935154e-02       1.690560836939e+04 
       1.152784797079e-02       1.694698910674e+04 
       1.165596474745e-02       1.698468579232e+04 
       1.178411933118e-02       1.702209593647e+04 
       1.191231140780e-02       1.705575257767e+04 
       1.204054069789e-02       1.708856534759e+04 
       1.216880695557e-02       1.712125105339e+04 
       1.229710996733e-02       1.715020959260e+04 
       1.242544955090e-02       1.717671144158e+04 
       1.255382555428e-02       1.720222894782e+04 
       1.268223785481e-02       1.722637661854e+04 
       1.281068635825e-02       1.724978127334e+04 
       1.293917099803e-02       1.727130016112e+04 
       1.306769173445e-02       1.728818021377e+04 
       1.319624855405e-02       1.730662900031e+04 
       1.332484146892e-02       1.732232385967e+04 
       1.345347051615e-02       1.733606510038e+04 
       1.358213575726e-02       1.734839002688e+04 
       1.371083727772e-02       1.735960118997e+04 
       1.383957518651e-02       1.736883047299e+04 
       1.396834961569e-02       1.737582929443e+04 
       1.409716072003e-02       1.738072846338e+04 
       1.422600867665e-02       1.738660324934e+04 
       1.435489368476e-02       1.738892210581e+04 
       1.448381596533e-02       1.739126199104e+04 
       1.461277576092e-02       1.739097027861e+04 
       1.474177333540e-02       1.739003546264e+04 
       1.487080897380e-02       1.738754003307e+04 
       1.499988298214e-02       1.738345320674e+04 
       1.512899568732e-02       1.737865663352e+04 
       1.525814743700e-02       1.737354800338e+04 
       1.538733859953e-02       1.736520273221e+04 
       1.551656956385e-02       1.735662535290e+04 
       1.564584073954e-02       1.734629760796e+04 
       1.577515255670e-02       1.733375469955e+04 
       1.590450546606e-02       1.732065890724e+04 
       1.603389993894e-02       1.730706812244e+04 
       1.616333646732e-02       1.729182314668e+04 
       1.629281556390e-02       1.727694910197e+04 
       1.642233776221e-02       1.725830645937e+04 
       1.655190361669e-02       1.724020328257e+04 
       1.668151370282e-02       1.721930247509e+04 
       1.681116861728e-02       1.720106384015e+04 
       1.694086897806e-02       1.717743970253e+04 
       1.707061542472e-02       1.715424114374e+04 
       1.720040861847e-02       1.713197226374e+04 
       1.733024924251e-02       1.710671306201e+04 
       1.746013800215e-02       1.708040887508e+04 
       1.759007562510e-02       1.705329402956e+04 
       1.772006286174e-02       1.702500106019e+04 
       1.785010048539e-02       1.699752849288e+04 
       1.798018929257e-02       1.696720438253e+04 
       1.811033010338e-02       1.693607277864e+04 
       1.824052376175e-02       1.690639195360e+04 
       1.837077113585e-02       1.687328319978e+04 
       1.850107311840e-02       1.683801713439e+04 
       1.863143062710e-02       1.680376730762e+04 
       1.876184460497e-02       1.676865577690e+04 
       1.889231602079e-02       1.673380341349e+04 
       1.902284586954e-02       1.669651903847e+04 
       1.915343517282e-02       1.665981574615e+04 
       1.928408497933e-02       1.662066783769e+04 
       1.941479636536e-02       1.658162283960e+04 
       1.954557043527e-02       1.654146141228e+04 
       1.967640832202e-02       1.650167509939e+04 
       1.980731118771e-02       1.646047008315e+04 
       1.993828022414e-02       1.641890235824e+04 
       2.006931665338e-02       1.637527063608e+04 
       2.020042172836e-02       1.633248143279e+04 
       2.033159673351e-02       1.628818710704e+04 
       2.046284298537e-02       1.624407731985e+04 
       2.059416183327e-02       1.619892435270e+04 
       2.072555466002e-02       1.615311793473e+04 
       2.085702288256e-02       1.610655932312e+04 
       2.098856795276e-02       1.605940106197e+04 
       2.112019135811e-02       1.601201041349e+04 
       2.125189462254e-02       1.596365068521e+04 
       2.138367930717e-02       1.591513594522e+04 
       2.151554701117e-02       1.586587711526e+04 
       2.164749937262e-02       1.581649855299e+04 
       2.177953806933e-02       1.576531107055e+04 
       2.191166481979e-02       1.571488684282e+04 
       2.204388138412e-02       1.566373032447e+04 
       2.217618956496e-02       1.561213931643e+04 
       2.230859120855e-02       1.555961285180e+04 
       2.244108820567e-02       1.550658423283e+04 
       2.257368249275e-02       1.545370395705e+04 
       2.270637605295e-02       1.539991203064e+04 
       2.283917091726e-02       1.534589511821e+04 
       2.297206916568e-02       1.529166090417e+04 
       2.310507292839e-02       1.523656772402e+04 
       2.323818438700e-02       1.518144400646e+04 
       2.337140577581e-02       1.512567690080e+04 
       2.350473938315e-02       1.507150500082e+04 
       2.363818755266e-02       1.501355801494e+04 
       2.377175268477e-02       1.495702295369e+04 
       2.390543723807e-02       1.490013796662e+04 
       2.403924373083e-02       1.484261576161e+04 
       2.417317474253e-02       1.478487800756e+04 
       2.430723291542e-02       1.472744583358e+04 
       2.444142095618e-02       1.466933449378e+04 
       2.457574163760e-02       1.461187755922e+04 
       2.471019780028e-02       1.455176544496e+04 
       2.484479235450e-02       1.449332640680e+04 
       2.497952828202e-02       1.443468398823e+04 
       2.511440863801e-02       1.437461787519e+04 
       2.524943655303e-02       1.431554182504e+04 
       2.538461523512e-02       1.425553873897e+04 
       2.551994797184e-02       1.419558002465e+04 
       2.565543813252e-02       1.413479716498e+04 
       2.579108917051e-02       1.407440477937e+04 
       2.592690462549e-02       1.401411920214e+04 
       2.606288812592e-02       1.395360371392e+04 
       2.619904339155e-02       1.389199110677e+04 
       2.633537423597e-02       1.383118383883e+04 
       2.647188456935e-02       1.376904627244e+04 
       2.660857840116e-02       1.370878631479e+04 
       2.674545984307e-02       1.364657343406e+04 
       2.688253311194e-02       1.358495715346e+04 
       2.701980253287e-02       1.352236075625e+04 
       2.715727254244e-02       1.346046442648e+04 
       2.729494769197e-02       1.339839319395e+04 
       2.743283265099e-02       1.333611937132e+04 
       2.757093221079e-02       1.327373599360e+04 
       2.770925128811e-02       1.321161796827e+04 
       2.784779492897e-02       1.314900547705e+04 
       2.798656831264e-02       1.308667751982e+04 
       2.812557675579e-02       1.302423799942e+04 
       2.826482571672e-02       1.296166471628e+04 
       2.840432079988e-02       1.289902737427e+04 
       2.854406776042e-02       1.283645159521e+04 
       2.868407250906e-02       1.277353638005e+04 
       2.882434111702e-02       1.271083149246e+04 
       2.896487982126e-02       1.264827553945e+04 
       2.910569502983e-02       1.258546596361e+04 
       2.924679332755e-02       1.252265736373e+04 
       2.938818148178e-02       1.246001016216e+04 
       2.952986644856e-02       1.239722794302e+04 
       2.967185537893e-02       1.233448838149e+04 
       2.981415562554e-02       1.227174767852e+04 
       2.995677474950e-02       1.220879316610e+04 
       3.009972052758e-02       1.214618245156e+04 
       3.024300095968e-02       1.208314652862e+04 
       3.038662427662e-02       1.202046618675e+04 
       3.053059894830e-02       1.195839665674e+04 
       3.067493369218e-02       1.189635242162e+04 
       3.081963748218e-02       1.183326015012e+04 
       3.096471955791e-02       1.177077438832e+04 
       3.111018943440e-02       1.170826031042e+04 
       3.125605691220e-02       1.164544338602e+04 
       3.140233208800e-02       1.158319343156e+04 
       3.154902536572e-02       1.152009251526e+04 
       3.169614746808e-02       1.145902454941e+04 
       3.184370944881e-02       1.139669956480e+04 
       3.199172270533e-02       1.133458774419e+04 
       3.214019899213e-02       1.127272418459e+04 
       3.228915043476e-02       1.121086755292e+04 
       3.243858954453e-02       1.114906994043e+04 
       3.258852923389e-02       1.108745657937e+04 
       3.273898283262e-02       1.102587227323e+04 
       3.288996410486e-02       1.096436647851e+04 
       3.304148726696e-02       1.090303489726e+04 
       3.319356700626e-02       1.084176666314e+04 
       3.334621850089e-02       1.078006854994e+04 
       3.349945744058e-02       1.071953029079e+04 
       3.365330004854e-02       1.065858129016e+04 
       3.380776310462e-02       1.059775033977e+04 
       3.396286396965e-02       1.053640527567e+04 
       3.411862061110e-02       1.047637981641e+04 
       3.427505163025e-02       1.041502312715e+04 
       3.443217629083e-02       1.035543407358e+04 
       3.459001454926e-02       1.029515382221e+04 
       3.474858708671e-02       1.023417880209e+04 
       3.490791534296e-02       1.017506405074e+04 
       3.506802155224e-02       1.011494054585e+04 
       3.522892878128e-02       1.005520587706e+04 
       3.539066096952e-02       9.995596241725e+03 
       3.555324297194e-02       9.935935019645e+03 
       3.571670060433e-02       9.876509179394e+03 
       3.588106069155e-02       9.817255589699e+03 
       3.604635111876e-02       9.758034550175e+03 
       3.621260088590e-02       9.698379156302e+03 
       3.637984016575e-02       9.640042829073e+03 
       3.654810036579e-02       9.581279960737e+03 
       3.671741419408e-02       9.522670126174e+03 
       3.688781572972e-02       9.464182313545e+03 
       3.705934049795e-02       9.405161210057e+03 
       3.723202555053e-02       9.346950889113e+03 
       3.740590955172e-02       9.288881699959e+03 
       3.758103287036e-02       9.231584857816e+03 
       3.775743767855e-02       9.173170054318e+03 
       3.793516805749e-02       9.116066071118e+03 
       3.811427011127e-02       9.058587263123e+03 
       3.829479208903e-02       9.000604818788e+03 
       3.847678451653e-02       8.943900305020e+03 
       3.866030033781e-02       8.886791444513e+03 
       3.884539506797e-02       8.829745544767e+03 
       3.903212695812e-02       8.772722822411e+03 
       3.922055717360e-02       8.715403968496e+03 
       3.941074998689e-02       8.658803415766e+03 
       3.960277298649e-02       8.602625885142e+03 
       3.979669730355e-02       8.546177212758e+03 
       3.999259785801e-02       8.489167561450e+03 
       4.019055362619e-02       8.432820587696e+03 
       4.039064793222e-02       8.377103168115e+03 
       4.059296876580e-02       8.320933189587e+03 
       4.079760912922e-02       8.264361045906e+03 
       4.100466741681e-02       8.208879361802e+03 
       4.121424783056e-02       8.152487232060e+03 
       4.142646083607e-02       8.097229901880e+03 
       4.164142366350e-02       8.040862407402e+03 
       4.185926085895e-02       7.985735436771e+03 
       4.208010489239e-02       7.929481787624e+03 
       4.230409682914e-02       7.874444637546e+03 
       4.253138707286e-02       7.818960552927e+03 
       4.276213618943e-02       7.763495340051e+03 
       4.299651582211e-02       7.708030507614e+03 
       4.323470971049e-02       7.652647957466e+03 
       4.347691482711e-02       7.597312648998e+03 
       4.372334264845e-02       7.541980733111e+03 
       4.397422057936e-02       7.486803093571e+03 
       4.422979355318e-02       7.431055834689e+03 
       4.449032583397e-02       7.376208005326e+03 
       4.475610305132e-02       7.320868813988e+03 
       4.502743450429e-02       7.265115072651e+03 
       4.530465577708e-02       7.209673290688e+03 
       4.558813171754e-02       7.154741994982e+03 
       4.587825983897e-02       7.099028432329e+03 
       4.617547421776e-02       7.043341903073e+03 
       4.648024997382e-02       6.987618680820e+03 
       4.679310843848e-02       6.931150309829e+03 
       4.711462313673e-02       6.875419212678e+03 
       4.744542673780e-02       6.819111724103e+03 
       4.778621916177e-02       6.762561467230e+03 
       4.813777707257e-02       6.705784916520e+03 
       4.850096504050e-02       6.648720083275e+03 
       4.887674872438e-02       6.591401174868e+03 
       4.926621050782e-02       6.533927615080e+03 
       4.967056813129e-02       6.475422476219e+03 
       5.009119699784e-02       6.417498271196e+03 
       5.052965700368e-02       6.358599334154e+03 
       5.098772496627e-02       6.299002727597e+03 
       5.146743400414e-02       6.239595579480e+03 
       5.197112157982e-02       6.179290603175e+03 
       5.250148836704e-02       6.118432384493e+03 
       5.306167066023e-02       6.056490394995e+03 
       5.365532971716e-02       5.993504967445e+03 
       5.428676219834e-02       5.929622406092e+03 
       5.496103667465e-02       5.863541830555e+03 
       5.568416183614e-02       5.796901215059e+03 
       5.646329214238e-02       5.727570364096e+03 
       5.730697534282e-02       5.655936795247e+03 
       5.822544184871e-02       5.581478878302e+03 
       5.923092511196e-02       5.503684796752e+03 
       6.033797923594e-02       5.421246336313e+03 
       6.156371593844e-02       5.332842522527e+03 
