# dimensionless total lensed [l(l+1)/2pi] C_l's
# for l=2 to 2500, i.e. number of multipoles equal to 2499
#
# -> if you prefer output in CAMB/HealPix/LensPix units/order, set 'format' to 'camb' in input file
# -> if you don't want to see such a header, set 'headers' to 'no' in input file
# -> for CMB lensing (phi), these are C_l^phi-phi for the lensing potential.
#    Remember the conversion factors:
#    C_l^dd (deflection) = l(l+1) C_l^phi-phi
#    C_l^gg (shear/convergence) = 1/4 (l(l+1))^2 C_l^phi-phi
#
# 1:l     2:TT                     3:EE                     4:TE                     5:BB                     6:phiphi                 7:TPhi                   8:Ephi               
    2       1.132433111181e-10       4.253757899430e-15       3.976616033379e-13       2.272160092310e-19       7.576929371247e-09       2.331193812392e-10      -1.863112321972e-12 
    3       1.105665660690e-10       5.406352716792e-15       4.188861825308e-13       4.545173510358e-19       4.662076681005e-09       1.717956938495e-10      -1.421760776869e-12 
    4       1.075937352690e-10       4.656834133062e-15       3.783120450127e-13       7.577170608996e-19       3.235052475041e-09       1.326891362689e-10      -9.405880606934e-13 
    5       1.053884182959e-10       3.098370458295e-15       3.158336670403e-13       1.136924817789e-18       2.411458828381e-09       1.059763611920e-10      -5.329455515309e-13 
    6       1.040555531710e-10       1.727517971227e-15       2.513175479119e-13       1.592274276858e-18       1.881900533174e-09       8.678434490949e-11      -2.313721890945e-13 
    7       1.034247275932e-10       9.303538806927e-16       1.958741410024e-13       2.123920906272e-18       1.517215715869e-09       7.246456463539e-11      -3.817147323844e-14 
    8       1.033786906923e-10       5.992194442728e-16       1.540584026734e-13       2.732039518566e-18       1.253410766196e-09       6.150832182327e-11       6.135702878646e-14 
    9       1.037804797192e-10       4.818665226754e-16       1.265089415983e-13       3.416821559256e-18       1.055255272665e-09       5.299441630254e-11       9.054229721528e-14 
   10       1.044790913191e-10       4.123873863949e-16       1.115771934246e-13       4.178472220725e-18       9.019524776488e-10       4.625854132426e-11       7.529683558294e-14 
   11       1.054720988027e-10       3.485944773936e-16       1.064442881415e-13       5.017207452545e-18       7.732451864482e-10       4.166569039382e-11       3.980864075352e-14 
   12       1.066454417054e-10       3.057066351180e-16       1.079938294820e-13       5.933250940461e-18       6.765382638825e-10       3.687297626901e-11       1.574780412218e-15 
   13       1.079719362826e-10       2.945728190373e-16       1.135338554618e-13       6.926831125097e-18       5.970635755973e-10       3.306186668893e-11      -2.732025273209e-14 
   14       1.094200151914e-10       3.072808116473e-16       1.210635805959e-13       7.998178328233e-18       5.308732294612e-10       2.966148630741e-11      -4.262375610389e-14 
   15       1.109926252742e-10       3.322630868975e-16       1.293416593389e-13       9.147522049262e-18       4.751058563655e-10       2.683294782441e-11      -4.453259936949e-14 
   16       1.126302160326e-10       3.671775991797e-16       1.377564689311e-13       1.037508848744e-17       4.276438294469e-10       2.439434309728e-11      -3.698785011718e-14 
   17       1.143683212380e-10       4.176860456640e-16       1.461088355317e-13       1.168109833704e-17       3.868898194476e-10       2.225735517555e-11      -2.516777906156e-14 
   18       1.161465304745e-10       4.893168088968e-16       1.546508364501e-13       1.306576478219e-17       3.514883680129e-10       2.040005762120e-11      -1.394618840360e-14 
   19       1.179787992307e-10       5.824545972863e-16       1.636101297493e-13       1.452929249134e-17       3.208754123529e-10       1.879488357775e-11      -5.925269125935e-15 
   20       1.198661056231e-10       6.951266712881e-16       1.731380202142e-13       1.607187518527e-17       2.938922243031e-10       1.737160469259e-11      -2.804431901683e-15 
   21       1.218126405396e-10       8.266255310860e-16       1.831835197995e-13       1.769369650114e-17       2.701196314175e-10       1.609880695544e-11      -4.017534863486e-15 
   22       1.237959120418e-10       9.763498967338e-16       1.935502918055e-13       1.939492747334e-17       2.489899741045e-10       1.494017189885e-11      -7.811635416020e-15 
   23       1.258233196776e-10       1.144423005598e-15       2.039039345239e-13       2.117572893620e-17       2.302240519393e-10       1.389723171363e-11      -1.242676060716e-14 
   24       1.278909117325e-10       1.331038406340e-15       2.138211669827e-13       2.303624857468e-17       2.133971256968e-10       1.296970156877e-11      -1.598437700597e-14 
   25       1.299948384552e-10       1.536414331012e-15       2.229984133780e-13       2.497662387550e-17       1.982836273594e-10       1.214380002979e-11      -1.766543604414e-14 
   26       1.321195454863e-10       1.760936497265e-15       2.311814796249e-13       2.699698011671e-17       1.845904040427e-10       1.139406122889e-11      -1.713473146917e-14 
   27       1.342751922898e-10       2.006253577579e-15       2.383021831523e-13       2.909743736684e-17       1.722481872025e-10       1.071373165169e-11      -1.490038534793e-14 
   28       1.364655685990e-10       2.274645761269e-15       2.443742740092e-13       3.127810385064e-17       1.611091806529e-10       1.009335888719e-11      -1.196061369949e-14 
   29       1.386816257409e-10       2.568420238811e-15       2.494427299356e-13       3.353907614442e-17       1.509050981997e-10       9.517555356347e-12      -9.427444780980e-15 
   30       1.409300446722e-10       2.888680519298e-15       2.535563133839e-13       3.588045099017e-17       1.415808394797e-10       8.987292386922e-12      -7.687353313751e-15 
   31       1.432125296598e-10       3.236060253468e-15       2.567887379926e-13       3.830231704683e-17       1.330681850759e-10       8.505193784889e-12      -6.918690706869e-15 
   32       1.455214998708e-10       3.611134830955e-15       2.592073001959e-13       4.080475420439e-17       1.252336742793e-10       8.069603234177e-12      -7.206008331222e-15 
   33       1.478568445388e-10       4.014822044602e-15       2.607298359210e-13       4.338784368972e-17       1.180354304154e-10       7.675619771643e-12      -8.195429778454e-15 
   34       1.502129971876e-10       4.448118148674e-15       2.612136135128e-13       4.605166114809e-17       1.114105217288e-10       7.313574253817e-12      -9.297426540552e-15 
   35       1.525797064693e-10       4.911984120838e-15       2.605072545290e-13       4.879627620199e-17       1.052613066295e-10       6.971788931299e-12      -9.918932958065e-15 
   36       1.549640523450e-10       5.407323133393e-15       2.585087781401e-13       5.162176080826e-17       9.957233821014e-11       6.648791343739e-12      -9.996413923236e-15 
   37       1.573746344345e-10       5.934989555580e-15       2.551259210510e-13       5.452818365832e-17       9.432623706206e-11       6.344850035267e-12      -9.643668982684e-15 
   38       1.598149365843e-10       6.495790307129e-15       2.502601632751e-13       5.751560796407e-17       8.946833005030e-11       6.058526350805e-12      -9.014382317722e-15 
   39       1.622843050234e-10       7.090468723634e-15       2.438305745725e-13       6.058409230222e-17       8.492648571181e-11       5.787611564634e-12      -8.281325323587e-15 
   40       1.647828160843e-10       7.719658324888e-15       2.358562799688e-13       6.373369349482e-17       8.068713559167e-11       5.532728757289e-12      -7.558295913830e-15 
   41       1.673070137919e-10       8.383907231201e-15       2.264013263356e-13       6.696446471022e-17       7.673940805516e-11       5.294679620980e-12      -6.956474224648e-15 
   42       1.698479439506e-10       9.083684809664e-15       2.155541591730e-13       7.027645476621e-17       7.305243571223e-11       5.073364600461e-12      -6.606968619718e-15 
   43       1.723955342145e-10       9.819443567464e-15       2.033941257985e-13       7.366970645882e-17       6.958684771091e-11       4.867986882461e-12      -6.620311866204e-15 
   44       1.749545773327e-10       1.059183879276e-14       1.898752081729e-13       7.714425077398e-17       6.633751415290e-11       4.677938131262e-12      -6.947190428214e-15 
   45       1.775328698777e-10       1.140156964358e-14       1.749083824667e-13       8.070011097932e-17       6.330129377197e-11       4.502048215829e-12      -7.476187870141e-15 
   46       1.801365590058e-10       1.224931823145e-14       1.583925606721e-13       8.433730415848e-17       6.046419580960e-11       4.338258445903e-12      -8.070173075391e-15 
   47       1.827699412387e-10       1.313574923114e-14       1.402137740696e-13       8.805584116549e-17       5.780053301226e-11       4.183556387160e-12      -8.564792615779e-15 
   48       1.854353888593e-10       1.406142226306e-14       1.202678339365e-13       9.185572404357e-17       5.528086812301e-11       4.034825135676e-12      -8.813377387620e-15 
   49       1.881335740748e-10       1.502650074543e-14       9.853777248873e-14       9.573693752719e-17       5.290047852633e-11       3.891826330764e-12      -8.840149203423e-15 
   50       1.908629623261e-10       1.603096030062e-14       7.503682869484e-14       9.969945506627e-17       5.065746019248e-11       3.754946022053e-12      -8.727610983794e-15 
   51       1.936195002741e-10       1.707466409536e-14       4.978724886364e-14       1.037432409822e-16       4.854424618707e-11       3.624335553577e-12      -8.574742386798e-15 
   52       1.963964210922e-10       1.815735800016e-14       2.282066792834e-14       1.078682502928e-16       4.654720831604e-11       3.499893035012e-12      -8.497860252181e-15 
   53       1.991868826189e-10       1.927878862672e-14      -5.835435145426e-15       1.120744296336e-16       4.465096086095e-11       3.381382651163e-12      -8.600804201151e-15 
   54       2.019931264366e-10       2.043910421673e-14      -3.620333774249e-14       1.163617207017e-16       4.285348799367e-11       3.268871259436e-12      -8.874512216860e-15 
   55       2.048193346366e-10       2.163854840227e-14      -6.832053450391e-14       1.207300573926e-16       4.115421199250e-11       3.162371767315e-12      -9.273121273127e-15 
   56       2.076689288907e-10       2.287734665542e-14      -1.022270358752e-13       1.251793646555e-16       3.954943496660e-11       3.061702658675e-12      -9.741965691373e-15 
   57       2.105444945214e-10       2.415570659974e-14      -1.379655707162e-13       1.297095583646e-16       3.803213765366e-11       2.966475244411e-12      -1.021715142785e-14 
   58       2.134477045724e-10       2.547381832177e-14      -1.755817889111e-13       1.343205451899e-16       3.659177821751e-11       2.876080913063e-12      -1.062513036085e-14 
   59       2.163796132109e-10       2.683173701755e-14      -2.151114754059e-13       1.390122301800e-16       3.521720687027e-11       2.789855683512e-12      -1.090024742011e-14 
   60       2.193417879515e-10       2.822899840001e-14      -2.565382647776e-13       1.437845418585e-16       3.390665711265e-11       2.707647443733e-12      -1.104310739147e-14 
   61       2.223353066411e-10       2.966491436950e-14      -2.998264473615e-13       1.486374127385e-16       3.265972328413e-11       2.629358143178e-12      -1.107503432411e-14 
   62       2.253603491304e-10       3.113867922379e-14      -3.449328615759e-13       1.535707722525e-16       3.147435511854e-11       2.554771471540e-12      -1.102147025992e-14 
   63       2.284161338638e-10       3.264936598088e-14      -3.918066562410e-13       1.585845468856e-16       3.034676216290e-11       2.483546119621e-12      -1.091215876955e-14 
   64       2.315008544702e-10       3.419592270186e-14      -4.403890528987e-13       1.636786603075e-16       2.927131819623e-11       2.415209040202e-12      -1.078132848855e-14 
   65       2.346125829299e-10       3.577728703765e-14      -4.906259512447e-13       1.688530458148e-16       2.824212153712e-11       2.349287339062e-12      -1.066015598863e-14 
   66       2.377523438242e-10       3.739276632457e-14      -5.425093821702e-13       1.741076864238e-16       2.725827473239e-11       2.285751550667e-12      -1.055188684777e-14 
   67       2.409215797315e-10       3.904173165104e-14      -5.960444348199e-13       1.794425835303e-16       2.631955545880e-11       2.224654471166e-12      -1.045175817293e-14 
   68       2.441212064070e-10       4.072350637346e-14      -6.512373074297e-13       1.848577458174e-16       2.542481095647e-11       2.165998004066e-12      -1.035422251864e-14 
   69       2.473515764103e-10       4.243736574605e-14      -7.080954288933e-13       1.903531897316e-16       2.457190876630e-11       2.109730298863e-12      -1.025291546047e-14 
   70       2.506124427322e-10       4.418253655062e-14      -7.666275803300e-13       1.959289399602e-16       2.375768746733e-11       2.055742889681e-12      -1.014062316853e-14 
   71       2.539029224221e-10       4.595819672642e-14      -8.268440166512e-13       2.015850299076e-16       2.297790741409e-11       2.003867833900e-12      -1.000924998085e-14 
   72       2.572220743713e-10       4.776344030997e-14      -8.887480985218e-13       2.073215097589e-16       2.222834575513e-11       1.953926811507e-12      -9.852231450958e-15 
   73       2.605708418878e-10       4.959716528623e-14      -9.523090585297e-13       2.131384714015e-16       2.150843429842e-11       1.905895692698e-12      -9.672381781976e-15 
   74       2.639504190031e-10       5.145816344122e-14      -1.017484202836e-12       2.190360291712e-16       2.081823415989e-11       1.859766535151e-12      -9.475501120491e-15 
   75       2.673616473845e-10       5.334515200221e-14      -1.084226866567e-12       2.250143133280e-16       2.015733060975e-11       1.815496775664e-12      -9.268086556747e-15 
   76       2.708049939839e-10       5.525677247546e-14      -1.152486341558e-12       2.310734707067e-16       1.952480993498e-11       1.773007555097e-12      -9.057355530849e-15 
   77       2.742805286870e-10       5.719158948406e-14      -1.222207804091e-12       2.372136653665e-16       1.891923630189e-11       1.732182043327e-12      -8.851269238964e-15 
   78       2.777879019625e-10       5.914808960572e-14      -1.293332242636e-12       2.434350792411e-16       1.833862861857e-11       1.692863764201e-12      -8.658556039523e-15 
   79       2.813263225108e-10       6.112468021056e-14      -1.365796385592e-12       2.497379127888e-16       1.778043739744e-11       1.654854920487e-12      -8.488734859422e-15 
   80       2.848949957711e-10       6.311974068951e-14      -1.439538054657e-12       2.561223798928e-16       1.724218043361e-11       1.617966351652e-12      -8.349871970325e-15 
   81       2.884945763148e-10       6.513178894208e-14      -1.514513454594e-12       2.625886901126e-16       1.672352787817e-11       1.582181083874e-12      -8.241351179196e-15 
   82       2.921259280624e-10       6.715934181560e-14      -1.590682768253e-12       2.691370645226e-16       1.622453872880e-11       1.547516258264e-12      -8.159884915144e-15 
   83       2.957896722253e-10       6.920086509367e-14      -1.668005025423e-12       2.757677417228e-16       1.574502340746e-11       1.513973312986e-12      -8.101651058131e-15 
   84       2.994861734894e-10       7.125477330413e-14      -1.746438131038e-12       2.824809783825e-16       1.528453282323e-11       1.481537264372e-12      -8.062274370544e-15 
   85       3.032155261988e-10       7.331942952708e-14      -1.825938893401e-12       2.892770497836e-16       1.484234743509e-11       1.450175988037e-12      -8.036807928768e-15 
   86       3.069775405391e-10       7.539314520285e-14      -1.906463052391e-12       2.961562503641e-16       1.441746631474e-11       1.419839499992e-12      -8.019714554760e-15 
   87       3.107717287207e-10       7.747417994004e-14      -1.987965307685e-12       3.031188942620e-16       1.400859620939e-11       1.390459237762e-12      -8.004848247625e-15 
   88       3.145972911626e-10       7.956074132346e-14      -2.070399346970e-12       3.101653158581e-16       1.361414060461e-11       1.361947341497e-12      -7.985435615184e-15 
   89       3.184534247468e-10       8.165100983903e-14      -2.153716413686e-12       3.172958632747e-16       1.323258124979e-11       1.334219499845e-12      -7.955529513007e-15 
   90       3.223403331149e-10       8.374321854773e-14      -2.237860691279e-12       3.245108765139e-16       1.286371516436e-11       1.307269161678e-12      -7.914671764858e-15 
   91       3.262583501357e-10       8.583558561430e-14      -2.322773243502e-12       3.318107068754e-16       1.250759242954e-11       1.281103695447e-12      -7.863931063288e-15 
   92       3.302076230768e-10       8.792629048467e-14      -2.408393416682e-12       3.391957241282e-16       1.216413601282e-11       1.255721500013e-12      -7.804499313148e-15 
   93       3.341881036129e-10       9.001347407024e-14      -2.494658846047e-12       3.466663169488e-16       1.183313671039e-11       1.231111638788e-12      -7.737695118701e-15 
   94       3.381995388345e-10       9.209523893216e-14      -2.581505462070e-12       3.542228933592e-16       1.151424808949e-11       1.207253473886e-12      -7.664967270740e-15 
   95       3.422414622562e-10       9.416964946562e-14      -2.668867496799e-12       3.618658811647e-16       1.120698143084e-11       1.184116300263e-12      -7.587898233705e-15 
   96       3.463131848255e-10       9.623473208410e-14      -2.756677490195e-12       3.695957283922e-16       1.091070067100e-11       1.161658979866e-12      -7.508207632794e-15 
   97       3.504137859311e-10       9.828847540369e-14      -2.844866296467e-12       3.774129037277e-16       1.062461734481e-11       1.139829575773e-12      -7.427755741084e-15 
   98       3.545421044116e-10       1.003288304273e-13      -2.933363090406e-12       3.853178969546e-16       1.034778552777e-11       1.118564986341e-12      -7.348546966646e-15 
   99       3.586970265718e-10       1.023537576530e-13      -3.022096755624e-12       3.933112204971e-16       1.007931928118e-11       1.097806708795e-12      -7.272327953835e-15 
  100       3.628784162171e-10       1.043613756131e-13      -3.111000259922e-12       4.013934133533e-16       9.819091062800e-12       1.077551468472e-12      -7.199309396036e-15 
  101       3.670863002600e-10       1.063498338145e-13      -3.200006914304e-12       4.095650385356e-16       9.567123304734e-12       1.057807114483e-12      -7.129268814483e-15 
  102       3.713205781407e-10       1.083172684354e-13      -3.289049069165e-12       4.178266824603e-16       9.323372405268e-12       1.038576961848e-12      -7.061938383884e-15 
  103       3.755810164361e-10       1.102618030782e-13      -3.378058137372e-12       4.261789553988e-16       9.087726368256e-12       1.019859621141e-12      -6.997003505780e-15 
  104       3.798672434684e-10       1.121815495228e-13      -3.466964617350e-12       4.346224919293e-16       8.860002442522e-12       1.001648828153e-12      -6.934101381884e-15 
  105       3.841787439134e-10       1.140746084792e-13      -3.555698116172e-12       4.431579513878e-16       8.639944761258e-12       9.839332735384e-13      -6.872819587433e-15 
  106       3.885148534093e-10       1.159390703410e-13      -3.644187372640e-12       4.517860183198e-16       8.427221981432e-12       9.666964324696e-13      -6.812694644537e-15 
  107       3.928747531656e-10       1.177730159384e-13      -3.732360280375e-12       4.605074029316e-16       8.221424923178e-12       9.499163942924e-13      -6.753210595527e-15 
