# Matter power spectrum P(k) at redshift z=0
# for k=1.04206e-05 to 5.30492 h/Mpc,
# number of wavenumbers equal to 556
#    1:k (h/Mpc)              2:P (Mpc/h)^3        
       1.042057218102e-05       1.351850906602e+01 
       2.326965112342e-05       2.937545900398e+01 
       3.616368416807e-05       4.497324067637e+01 
       4.913719191669e-05       6.047249834138e+01 
       6.222526306398e-05       7.596492045065e+01 
       7.546386573317e-05       9.151587993791e+01 
       8.889016871848e-05       1.071950002318e+02 
       1.025428768879e-04       1.230496400350e+02 
       1.164625850317e-04       1.391363417144e+02 
       1.306921544768e-04       1.555036547870e+02 
       1.452771167918e-04       1.722140665446e+02 
       1.602661088541e-04       1.893208516459e+02 
       1.757113433752e-04       2.068846695576e+02 
       1.916691186266e-04       2.249559413430e+02 
       2.082003704669e-04       2.436180816280e+02 
       2.253712687328e-04       2.629384573317e+02 
       2.432538584349e-04       2.829829217356e+02 
       2.619267438096e-04       3.038431483578e+02 
       2.814758098253e-04       3.255970078537e+02 
       3.019949709326e-04       3.483576042626e+02 
       3.235869302973e-04       3.722228880521e+02 
       3.463639240714e-04       3.973024124610e+02 
       3.704484140771e-04       4.237180381924e+02 
       3.959736783330e-04       4.515911150999e+02 
       4.230842321551e-04       4.810757774301e+02 
       4.519359935994e-04       5.123110505963e+02 
       4.826960870599e-04       5.454549671437e+02 
       5.155421603068e-04       5.806757729018e+02 
       5.506610770795e-04       6.181287512715e+02 
       5.882468451648e-04       6.579655173039e+02 
       6.284976558480e-04       7.003847036728e+02 
       6.716119524910e-04       7.455227774078e+02 
       7.177835202431e-04       7.935082474991e+02 
       7.671956976726e-04       8.444861787801e+02 
       8.200149485734e-04       8.985179423959e+02 
       8.763841814427e-04       9.556854177594e+02 
       9.364163367208e-04       1.015983090279e+03 
       1.000188842063e-03       1.079438897695e+03 
       1.067739530145e-03       1.145872284329e+03 
       1.139064503247e-03       1.215282596188e+03 
       1.214118221432e-03       1.287425161587e+03 
       1.292815822649e-03       1.362085506119e+03 
       1.375037409677e-03       1.439024721016e+03 
       1.460633819123e-03       1.517908540634e+03 
       1.549433263665e-03       1.598486833438e+03 
       1.641248223778e-03       1.680536289709e+03 
       1.735882044008e-03       1.763701552665e+03 
       1.833134827638e-03       1.847732190230e+03 
       1.932808383275e-03       1.932328377470e+03 
       2.034710125338e-03       2.017270315617e+03 
       2.138655947732e-03       2.102295840015e+03 
       2.244472169001e-03       2.187176078094e+03 
       2.351996690227e-03       2.271753063785e+03 
       2.461079521249e-03       2.355822355471e+03 
       2.571582825440e-03       2.439247617149e+03 
       2.683380616479e-03       2.521889079371e+03 
       2.796358218588e-03       2.603631824168e+03 
       2.910411578978e-03       2.684369815904e+03 
       3.025446500195e-03       2.764013516135e+03 
       3.141377842005e-03       2.842494702390e+03 
       3.258128727724e-03       2.919747617307e+03 
       3.375629778368e-03       2.995726817767e+03 
       3.493818389279e-03       3.070378776089e+03 
       3.612638057479e-03       3.143676981596e+03 
       3.732037763470e-03       3.215592550959e+03 
       3.851971408043e-03       3.286094478308e+03 
       3.972397302633e-03       3.355176999070e+03 
       4.093277710446e-03       3.422825335098e+03 
       4.214578434858e-03       3.489032768467e+03 
       4.336268451247e-03       3.553794467212e+03 
       4.458319578333e-03       3.617111919802e+03 
       4.580706185188e-03       3.678985214513e+03 
       4.703404930262e-03       3.739423539068e+03 
       4.826394529030e-03       3.798401417422e+03 
       4.949655547142e-03       3.856010344930e+03 
       5.073170216248e-03       3.912099026731e+03 
       5.196922269937e-03       3.966968108839e+03 
       5.320896797515e-03       4.020309911504e+03 
       5.445080113588e-03       4.072283545422e+03 
       5.569459641634e-03       4.122910340308e+03 
       5.694023809978e-03       4.172198473427e+03 
       5.818761958739e-03       4.220318646421e+03 
       5.943664256511e-03       4.267119855713e+03 
       6.068721625672e-03       4.312502743400e+03 
       6.193925675349e-03       4.356250147275e+03 
       6.319268641182e-03       4.399655126168e+03 
       6.444743331135e-03       4.441032202937e+03 
       6.570343076681e-03       4.481220250332e+03 
       6.696061688782e-03       4.520669681869e+03 
       6.821893418135e-03       4.559036747765e+03 
       6.947832919238e-03       4.595917185331e+03 
       7.073875217858e-03       4.630802888701e+03 
       7.200015681550e-03       4.666381019141e+03 
       7.326249992911e-03       4.700089066069e+03 
       7.452574125278e-03       4.732650788268e+03 
       7.578984320627e-03       4.763617500514e+03 
       7.705477069457e-03       4.793233141732e+03 
       7.832049092443e-03       4.822991483925e+03 
       7.958697323705e-03       4.851127783683e+03 
       8.085418895512e-03       4.877810464413e+03 
       8.212211124305e-03       4.904290757313e+03 
       8.339071497896e-03       4.929430356256e+03 
       8.465997663740e-03       4.953447806583e+03 
       8.592987418178e-03       4.976658203246e+03 
       8.720038696556e-03       4.999286476149e+03 
       8.847149564156e-03       5.021217611987e+03 
       8.974318207839e-03       5.041013575916e+03 
       9.101542928364e-03       5.061138004413e+03 
       9.228822133307e-03       5.080190064390e+03 
       9.356154330527e-03       5.097284984011e+03 
       9.483538122139e-03       5.114375453401e+03 
       9.610972198953e-03       5.131250802674e+03 
       9.738455335323e-03       5.146418463088e+03 
       9.865986384394e-03       5.161793629930e+03 
       9.993564273694e-03       5.175156271044e+03 
       1.012118800106e-02       5.188309968265e+03 
       1.024885663085e-02       5.200561632476e+03 
       1.037656929045e-02       5.212593643218e+03 
       1.050432516701e-02       5.222532318515e+03 
       1.063212350445e-02       5.232649928863e+03 
       1.075996360063e-02       5.242137131938e+03 
       1.088784480475e-02       5.250752986808e+03 
       1.101576651498e-02       5.259494458422e+03 
       1.114372817613e-02       5.266474003610e+03 
       1.127172927762e-02       5.273195081530e+03 
       1.139976935154e-02       5.279084708810e+03 
       1.152784797079e-02       5.284751570961e+03 
       1.165596474745e-02       5.289454940636e+03 
       1.178411933118e-02       5.292687205672e+03 
       1.191231140780e-02       5.296677509340e+03 
       1.204054069789e-02       5.299350280734e+03 
       1.216880695557e-02       5.301310971039e+03 
       1.229710996733e-02       5.302994879411e+03 
       1.242544955090e-02       5.304611147512e+03 
       1.255382555428e-02       5.304656029626e+03 
       1.268223785481e-02       5.305175522181e+03 
       1.281068635825e-02       5.304600452970e+03 
       1.293917099803e-02       5.303575623555e+03 
       1.306769173445e-02       5.301920255755e+03 
       1.319624855405e-02       5.300076052564e+03 
       1.332484146892e-02       5.296674480834e+03 
       1.345347051615e-02       5.294061345281e+03 
       1.358213575726e-02       5.289481159187e+03 
       1.371083727772e-02       5.285855379151e+03 
       1.383957518651e-02       5.281352795904e+03 
       1.396834961569e-02       5.276346194284e+03 
       1.409716072003e-02       5.270875693942e+03 
       1.422600867665e-02       5.264882481805e+03 
       1.435489368476e-02       5.258528310520e+03 
       1.448381596533e-02       5.251715612239e+03 
       1.461277576092e-02       5.244494724633e+03 
       1.474177333540e-02       5.236847812925e+03 
       1.487080897380e-02       5.229536741927e+03 
       1.499988298214e-02       5.220588036310e+03 
       1.512899568732e-02       5.211861370094e+03 
       1.525814743700e-02       5.203030442404e+03 
       1.538733859953e-02       5.192507692843e+03 
       1.551656956385e-02       5.182738454339e+03 
       1.564584073954e-02       5.171622243691e+03 
       1.577515255670e-02       5.162025469518e+03 
       1.590450546606e-02       5.151383233608e+03 
       1.603389993894e-02       5.138560888263e+03 
       1.616333646732e-02       5.128248348246e+03 
       1.629281556390e-02       5.116201023482e+03 
       1.642233776221e-02       5.102821408229e+03 
       1.655190361669e-02       5.089697775989e+03 
       1.668151370282e-02       5.077436620962e+03 
       1.681116861728e-02       5.064743927861e+03 
       1.694086897806e-02       5.050479974360e+03 
       1.707061542472e-02       5.036553725362e+03 
       1.720040861847e-02       5.023125404149e+03 
       1.733024924251e-02       5.008692649107e+03 
       1.746013800215e-02       4.992551030383e+03 
       1.759007562510e-02       4.978965825321e+03 
       1.772006286174e-02       4.962333997071e+03 
       1.785010048539e-02       4.946795426565e+03 
       1.798018929257e-02       4.931718652000e+03 
       1.811033010338e-02       4.915948575880e+03 
       1.824052376175e-02       4.899064314152e+03 
       1.837077113585e-02       4.883623162910e+03 
       1.850107311840e-02       4.866487846828e+03 
       1.863143062710e-02       4.850007026794e+03 
       1.876184460497e-02       4.832195879064e+03 
       1.889231602079e-02       4.815066805548e+03 
       1.902284586954e-02       4.797502984333e+03 
       1.915343517282e-02       4.779181715362e+03 
       1.928408497933e-02       4.761216819382e+03 
       1.941479636536e-02       4.743639386369e+03 
       1.954557043527e-02       4.725291920344e+03 
       1.967640832202e-02       4.706544770346e+03 
       1.980731118771e-02       4.687864878351e+03 
       1.993828022414e-02       4.669034985899e+03 
       2.006931665338e-02       4.649971430706e+03 
       2.020042172836e-02       4.630457826127e+03 
       2.033159673351e-02       4.611112997058e+03 
       2.046284298537e-02       4.591959630828e+03 
       2.059416183327e-02       4.572295531590e+03 
       2.072555466002e-02       4.552181222731e+03 
       2.085702288256e-02       4.532571499853e+03 
       2.098856795276e-02       4.513168549548e+03 
       2.112019135811e-02       4.492323311623e+03 
       2.125189462254e-02       4.471692116118e+03 
       2.138367930717e-02       4.451686124789e+03 
       2.151554701117e-02       4.431022573904e+03 
       2.164749937262e-02       4.410012019976e+03 
       2.177953806933e-02       4.389576189040e+03 
       2.191166481979e-02       4.368374926011e+03 
       2.204388138412e-02       4.347363309169e+03 
       2.217618956496e-02       4.326295214598e+03 
       2.230859120855e-02       4.305099709805e+03 
       2.244108820567e-02       4.284755573603e+03 
       2.257368249275e-02       4.262521247652e+03 
       2.270637605295e-02       4.241507604396e+03 
       2.283917091726e-02       4.219568512016e+03 
       2.297206916568e-02       4.198846158327e+03 
       2.310507292839e-02       4.176359131706e+03 
       2.323818438700e-02       4.155501323602e+03 
       2.337140577581e-02       4.132840005723e+03 
       2.350473938315e-02       4.111024659511e+03 
       2.363818755266e-02       4.089084287314e+03 
       2.377175268477e-02       4.067148743778e+03 
       2.390543723807e-02       4.045149398946e+03 
       2.403924373083e-02       4.023106193127e+03 
       2.417317474253e-02       4.001440336299e+03 
       2.430723291542e-02       3.978872631641e+03 
       2.444142095618e-02       3.957546865811e+03 
       2.457574163760e-02       3.935111925407e+03 
       2.471019780028e-02       3.912208823819e+03 
       2.484479235450e-02       3.890816790136e+03 
       2.497952828202e-02       3.868530184903e+03 
       2.511440863801e-02       3.846198674993e+03 
       2.524943655303e-02       3.823900604642e+03 
       2.538461523512e-02       3.801545179522e+03 
       2.551994797184e-02       3.778728835083e+03 
       2.565543813252e-02       3.756491437324e+03 
       2.579108917051e-02       3.734402204247e+03 
       2.592690462549e-02       3.711509496424e+03 
       2.606288812592e-02       3.689131711831e+03 
       2.619904339155e-02       3.666743892728e+03 
       2.633537423597e-02       3.644532033986e+03 
       2.647188456935e-02       3.622143559966e+03 
       2.660857840116e-02       3.599748789836e+03 
       2.674545984307e-02       3.577670942128e+03 
       2.688253311194e-02       3.554459134379e+03 
       2.701980253287e-02       3.532338567793e+03 
       2.715727254244e-02       3.510590409877e+03 
       2.729494769197e-02       3.487862549931e+03 
       2.743283265099e-02       3.465123466946e+03 
       2.757093221079e-02       3.443335776324e+03 
       2.770925128811e-02       3.420966188155e+03 
       2.784779492897e-02       3.398791244430e+03 
       2.798656831264e-02       3.376713037695e+03 
       2.812557675579e-02       3.354549137801e+03 
       2.826482571672e-02       3.332255686368e+03 
       2.840432079988e-02       3.310364218397e+03 
       2.854406776042e-02       3.288275337340e+03 
       2.868407250906e-02       3.266232298962e+03 
       2.882434111702e-02       3.244348811844e+03 
       2.896487982126e-02       3.222408128883e+03 
       2.910569502983e-02       3.200472630514e+03 
       2.924679332755e-02       3.178357260893e+03 
       2.938818148178e-02       3.156542543542e+03 
       2.952986644856e-02       3.134779712985e+03 
       2.967185537893e-02       3.113223019397e+03 
       2.981415562554e-02       3.091218064752e+03 
       2.995677474950e-02       3.069983994503e+03 
       3.009972052758e-02       3.048508473301e+03 
       3.024300095968e-02       3.026925729973e+03 
       3.038662427662e-02       3.005801147516e+03 
       3.053059894830e-02       2.984216715597e+03 
       3.067493369218e-02       2.963070168322e+03 
       3.081963748218e-02       2.941798330824e+03 
       3.096471955791e-02       2.920554376604e+03 
       3.111018943440e-02       2.899202528118e+03 
       3.125605691220e-02       2.878356786378e+03 
       3.140233208800e-02       2.857078660744e+03 
       3.154902536572e-02       2.836187233449e+03 
       3.169614746808e-02       2.815124527217e+03 
       3.184370944881e-02       2.794285802104e+03 
       3.199172270533e-02       2.773715478421e+03 
       3.214019899213e-02       2.752944633027e+03 
       3.228915043476e-02       2.732204612759e+03 
       3.243858954453e-02       2.711739890126e+03 
       3.258852923389e-02       2.691359175533e+03 
       3.273898283262e-02       2.670899129586e+03 
       3.288996410486e-02       2.650615296668e+03 
       3.304148726696e-02       2.630022304626e+03 
       3.319356700626e-02       2.610256031232e+03 
       3.334621850089e-02       2.589988744764e+03 
       3.349945744058e-02       2.569858384921e+03 
       3.365330004854e-02       2.550008743670e+03 
       3.380776310462e-02       2.529985193117e+03 
       3.396286396965e-02       2.510227187062e+03 
       3.411862061110e-02       2.490448592452e+03 
       3.427505163025e-02       2.470853947000e+03 
       3.443217629083e-02       2.451193360789e+03 
       3.459001454926e-02       2.431689702930e+03 
       3.474858708671e-02       2.412288552897e+03 
       3.490791534296e-02       2.392928363432e+03 
       3.506802155224e-02       2.373381999683e+03 
       3.522892878128e-02       2.354367302810e+03 
       3.539066096952e-02       2.335449552701e+03 
       3.555324297194e-02       2.316398231903e+03 
       3.571670060433e-02       2.297561930652e+03 
       3.588106069155e-02       2.278236525275e+03 
       3.604635111876e-02       2.259576189793e+03 
       3.621260088590e-02       2.240835931271e+03 
       3.637984016575e-02       2.222355299249e+03 
       3.654810036579e-02       2.204034224986e+03 
       3.671741419408e-02       2.185302087530e+03 
       3.688781572972e-02       2.166928033921e+03 
       3.705934049795e-02       2.148596987643e+03 
       3.723202555053e-02       2.130339981673e+03 
       3.740590955172e-02       2.112117766992e+03 
       3.758103287036e-02       2.093946353726e+03 
       3.775743767855e-02       2.076003585498e+03 
       3.793516805749e-02       2.058201410310e+03 
       3.811427011127e-02       2.040292983496e+03 
       3.829479208903e-02       2.022577125808e+03 
       3.847678451653e-02       2.004797211614e+03 
       3.866030033781e-02       1.987271355988e+03 
       3.884539506797e-02       1.969650070219e+03 
       3.903212695812e-02       1.952110419980e+03 
       3.922055717360e-02       1.934761065786e+03 
       3.941074998689e-02       1.917425388893e+03 
       3.960277298649e-02       1.900235866507e+03 
       3.979669730355e-02       1.882916921273e+03 
       3.999259785801e-02       1.865735748622e+03 
       4.019055362619e-02       1.848851325381e+03 
       4.039064793222e-02       1.831618623503e+03 
       4.059296876580e-02       1.814755551106e+03 
       4.079760912922e-02       1.798043516614e+03 
       4.100466741681e-02       1.781239041312e+03 
       4.121424783056e-02       1.764607571652e+03 
       4.142646083607e-02       1.747921998706e+03 
       4.164142366350e-02       1.731312674959e+03 
       4.185926085895e-02       1.714636302507e+03 
       4.208010489239e-02       1.698158487122e+03 
       4.230409682914e-02       1.681774330655e+03 
       4.253138707286e-02       1.665429070572e+03 
       4.276213618943e-02       1.649186738806e+03 
       4.299651582211e-02       1.632908162826e+03 
       4.323470971049e-02       1.616712726325e+03 
       4.347691482711e-02       1.600617450226e+03 
       4.372334264845e-02       1.584517516286e+03 
       4.397422057936e-02       1.568541923646e+03 
       4.422979355318e-02       1.552397300188e+03 
       4.449032583397e-02       1.536628183496e+03 
       4.475610305132e-02       1.520720135307e+03 
       4.502743450429e-02       1.504884309945e+03 
       4.530465577708e-02       1.489207616573e+03 
       4.558813171754e-02       1.473361511181e+03 
       4.587825983897e-02       1.457576018124e+03 
       4.617547421776e-02       1.441835595072e+03 
       4.648024997382e-02       1.425996056802e+03 
       4.679310843848e-02       1.410592995297e+03 
       4.711462313673e-02       1.394953285738e+03 
       4.744542673780e-02       1.379384660905e+03 
       4.778621916177e-02       1.363710273955e+03 
       4.813777707257e-02       1.348208905928e+03 
       4.850096504050e-02       1.332610385873e+03 
       4.887674872438e-02       1.316983391121e+03 
       4.926621050782e-02       1.301533609110e+03 
       4.967056813129e-02       1.285911717875e+03 
       5.009119699784e-02       1.270439185194e+03 
       5.052965700368e-02       1.254737248216e+03 
       5.098772496627e-02       1.239252050425e+03 
       5.146743400414e-02       1.223516016310e+03 
       5.197112157982e-02       1.207927020830e+03 
       5.250148836704e-02       1.192236007387e+03 
       5.306167066023e-02       1.176476579493e+03 
       5.365532971716e-02       1.160609629074e+03 
       5.428676219834e-02       1.144762141780e+03 
       5.496103667465e-02       1.128656358967e+03 
       5.568416183614e-02       1.112544582638e+03 
       5.646329214238e-02       1.096159171195e+03 
       5.730697534282e-02       1.079476862478e+03 
       5.822544184871e-02       1.062387638736e+03 
       5.923092511196e-02       1.044855615721e+03 
       6.033797923594e-02       1.026795814472e+03 
       6.156371593844e-02       1.007746835187e+03 
