# dimensionless total lensed [l(l+1)/2pi] C_l's
# for l=2 to 2500, i.e. number of multipoles equal to 2499
#
# -> if you prefer output in CAMB/HealPix/LensPix units/order, set 'format' to 'camb' in input file
# -> if you don't want to see such a header, set 'headers' to 'no' in input file
# -> for CMB lensing (phi), these are C_l^phi-phi for the lensing potential.
#    Remember the conversion factors:
#    C_l^dd (deflection) = l(l+1) C_l^phi-phi
#    C_l^gg (shear/convergence) = 1/4 (l(l+1))^2 C_l^phi-phi
#
# 1:l     2:TT                     3:EE                     4:TE                     5:BB                     6:phiphi                 7:TPhi                   8:Ephi               
    2       2.197286034136e-09       4.686702359213e-15       2.929037267198e-12       1.928732185002e-19       7.675890419155e-09      -5.483927283949e-10      -1.845803919638e-12 
    3       1.986472124100e-09       5.971320263806e-15       3.123205552253e-12       3.858342396046e-19       4.698531159472e-09      -3.121300893424e-10      -1.378245820048e-12 
    4       1.799230951469e-09       5.099554230238e-15       2.800971238756e-12       6.432505647880e-19       3.246782408389e-09      -2.118845629364e-10      -8.759517395029e-13 
    5       1.638534326222e-09       3.359831505839e-15       2.240615730275e-12       9.652348019765e-19       2.411502288836e-09      -1.600322760320e-10      -4.551876354450e-13 
    6       1.500773378446e-09       1.902778304373e-15       1.623800801070e-12       1.351923965404e-18       1.875828324843e-09      -1.289788254237e-10      -1.478396234454e-13 
    7       1.381789673814e-09       1.129851566443e-15       1.066166984952e-12       1.803477128016e-18       1.507783384391e-09      -1.085604681557e-10       4.486680234567e-14 
    8       1.278073819646e-09       8.618064257727e-16       6.274890332722e-13       2.320072747650e-18       1.242116182659e-09      -9.412047736843e-11       1.388700714807e-13 
    9       1.186829908006e-09       7.738611374512e-16       3.267959758248e-13       2.901905737465e-18       1.042968780292e-09      -8.326913667735e-11       1.589282971091e-13 
   10       1.105984610210e-09       6.754631246203e-16       1.556151243186e-13       3.549184356846e-18       8.892004364938e-10      -7.475244068287e-11       1.324498954081e-13 
   11       1.033929755812e-09       5.445128364039e-16       8.947886823118e-14       4.262127002321e-18       7.606523289130e-10      -6.679916318778e-11       8.539620653037e-14 
   12       9.692670907439e-10       4.309690281506e-16       9.748688918900e-14       5.040958978910e-18       6.640315061378e-10      -6.195084563403e-11       3.558027058633e-14 
   13       9.110347906704e-10       3.690317794163e-16       1.495953559709e-13       5.885909330687e-18       5.847567553900e-10      -5.715788261439e-11      -3.666085703010e-15 
   14       8.583957276788e-10       3.551870486875e-16       2.210371110726e-13       6.797207805326e-18       5.188400832473e-10      -5.367341395988e-11      -2.771711879357e-14 
   15       8.106553005858e-10       3.703524362657e-16       2.943202286625e-13       7.775082021137e-18       4.633902951166e-10      -5.017099533419e-11      -3.646875426797e-14 
   16       7.671478653231e-10       4.030873736273e-16       3.593280740443e-13       8.819754896819e-18       4.162718488525e-10      -4.723040501318e-11      -3.386116304733e-14 
   17       7.274433073769e-10       4.541440830400e-16       4.120659804774e-13       9.931442394173e-18       3.758754266044e-10      -4.455997680406e-11      -2.529644049051e-14 
   18       6.909973356105e-10       5.284973296534e-16       4.531426539697e-13       1.111035148267e-17       3.408373338468e-10      -4.208750830335e-11      -1.602234802546e-14 
   19       6.577851060607e-10       6.276620680135e-16       4.849983231551e-13       1.235667926265e-17       3.105844166636e-10      -3.986986760112e-11      -8.996183559574e-15 
   20       6.271274114381e-10       7.508773317421e-16       5.114404293384e-13       1.367061039131e-17       2.839563447531e-10      -3.787241882768e-11      -6.379242769480e-15 
   21       5.989477649622e-10       8.971907119219e-16       5.348980045387e-13       1.505231833673e-17       2.605295415558e-10      -3.607936465703e-11      -7.853624005997e-15 
   22       5.729173810427e-10       1.064898951074e-15       5.575173568518e-13       1.650196269885e-17       2.397358676941e-10      -3.444768285252e-11      -1.185870938569e-14 
   23       5.489519374405e-10       1.252497468730e-15       5.797753864453e-13       1.801969211662e-17       2.212944272609e-10      -3.295012605712e-11      -1.665028102606e-14 
   24       5.267478954872e-10       1.458318504838e-15       6.015095683145e-13       1.960564112490e-17       2.047817339967e-10      -3.154636023951e-11      -2.029912123597e-14 
   25       5.061951903811e-10       1.681930263616e-15       6.221306782136e-13       2.125993362369e-17       1.899709785994e-10      -3.022867929718e-11      -2.190830417610e-14 
   26       4.870693043234e-10       1.923637865667e-15       6.409141297024e-13       2.298268076131e-17       1.765692245365e-10      -2.898943107661e-11      -2.106495526036e-14 
   27       4.694060670704e-10       2.185831695125e-15       6.576657773933e-13       2.477398873383e-17       1.645055007285e-10      -2.783430022576e-11      -1.828607759711e-14 
   28       4.531152644590e-10       2.472061786718e-15       6.723715182017e-13       2.663395166595e-17       1.536324675098e-10      -2.676121050786e-11      -1.461958443436e-14 
   29       4.379291414636e-10       2.786033435790e-15       6.850767148219e-13       2.856265188412e-17       1.436846691394e-10      -2.575600290854e-11      -1.124961398141e-14 
   30       4.238422030226e-10       3.129358258075e-15       6.959835201642e-13       3.056017268412e-17       1.346062637690e-10      -2.481125731072e-11      -8.658372990317e-15 
   31       4.108057618878e-10       3.502914023516e-15       7.053994441394e-13       3.262658963072e-17       1.263288702815e-10      -2.391224352047e-11      -7.146243914956e-15 
   32       3.986650895222e-10       3.907454171584e-15       7.136224376162e-13       3.476196983182e-17       1.187203486188e-10      -2.303942089990e-11      -6.912637645002e-15 
   33       3.874016239709e-10       4.343801259115e-15       7.206070976791e-13       3.696638246509e-17       1.117384891967e-10      -2.219901352459e-11      -7.588120163496e-15 
   34       3.769564107509e-10       4.812702398234e-15       7.261710444401e-13       3.923989174573e-17       1.053207004667e-10      -2.140251791297e-11      -8.513585502375e-15 
   35       3.672108885421e-10       5.314841507754e-15       7.301046164994e-13       4.158255632636e-17       9.937059634247e-11      -2.065756412193e-11      -9.019424181028e-15 
   36       3.581792127176e-10       5.851095560340e-15       7.322688449496e-13       4.399443716025e-17       9.387230482602e-11      -1.996532308282e-11      -9.017010518535e-15 
   37       3.498684212125e-10       6.422355354830e-15       7.325251988168e-13       4.647559236571e-17       8.880825751266e-11      -1.932139271251e-11      -8.606881755591e-15 
   38       3.422191746871e-10       7.029451925368e-15       7.307061391267e-13       4.902607524379e-17       8.412465040095e-11      -1.871584014867e-11      -7.925446559328e-15 
   39       3.351364913736e-10       7.673143141199e-15       7.266729718300e-13       5.164593470547e-17       7.975075003907e-11      -1.813645195941e-11      -7.131646687163e-15 
   40       3.286104121937e-10       8.354078904421e-15       7.205198015460e-13       5.433521653752e-17       7.567285377055e-11      -1.758104628927e-11      -6.355034397022e-15 
   41       3.226255689192e-10       9.072816585608e-15       7.124345369497e-13       5.709396269995e-17       7.187995820320e-11      -1.704851355587e-11      -5.734420235898e-15 
   42       3.171238494597e-10       9.829823823121e-15       7.026461578129e-13       5.992221111863e-17       6.834169685373e-11      -1.653520754511e-11      -5.433739699935e-15 
   43       3.120307513664e-10       1.062556754030e-14       6.913523738871e-13       6.281999329988e-17       6.501949385561e-11      -1.603670767043e-11      -5.590298944045e-15 
   44       3.073530405370e-10       1.146082646336e-14       6.784711783285e-13       6.578732603481e-17       6.190803045076e-11      -1.555428409222e-11      -6.136841978799e-15 
   45       3.031052965036e-10       1.233646729736e-14       6.638150071376e-13       6.882421728665e-17       5.900396890509e-11      -1.509007723029e-11      -6.926412560307e-15 
   46       2.992807533762e-10       1.325335974354e-14       6.471554997544e-13       7.193066840650e-17       5.629350709278e-11      -1.464519875002e-11      -7.778832458554e-15 
   47       2.958494998670e-10       1.421237727160e-14       6.282206897763e-13       7.510667408151e-17       5.375156378771e-11      -1.421963698822e-11      -8.478766312429e-15 
   48       2.927711105214e-10       1.521424521461e-14       6.067659743959e-13       7.835221914932e-17       5.134946157194e-11      -1.381266592562e-11      -8.834001121889e-15 
   49       2.900409497657e-10       1.625903261682e-14       5.828172341810e-13       8.166726810076e-17       4.908243751727e-11      -1.342442910137e-11      -8.874226560121e-15 
   50       2.876538278432e-10       1.734651847078e-14       5.564914191225e-13       8.505177252898e-17       4.694848766721e-11      -1.305463969562e-11      -8.704963601058e-15 
   51       2.855896717042e-10       1.847632504374e-14       5.279296848710e-13       8.850567379812e-17       4.494017472042e-11      -1.270204877763e-11      -8.453351190289e-15 
   52       2.838124613162e-10       1.964791086021e-14       4.972983476754e-13       9.202890283157e-17       4.304424687399e-11      -1.236437642273e-11      -8.269283275450e-15 
   53       2.822826881125e-10       2.086078504406e-14       4.647430914886e-13       9.562138122371e-17       4.124577490167e-11      -1.203903961064e-11      -8.288430172782e-15 
   54       2.810009398719e-10       2.211523120512e-14       4.302355668518e-13       9.928302539821e-17       3.954268969707e-11      -1.172571422413e-11      -8.507521990544e-15 
   55       2.799736695202e-10       2.341175746454e-14       3.936890103312e-13       1.030137431499e-16       3.793431865420e-11      -1.142431179682e-11      -8.878976910302e-15 
   56       2.792001684593e-10       2.475089360156e-14       3.550005570793e-13       1.068134322621e-16       3.641700724646e-11      -1.113420572090e-11      -9.345758993284e-15 
   57       2.786720698435e-10       2.613319331743e-14       3.140502356970e-13       1.106819803504e-16       3.498392731373e-11      -1.085419577222e-11      -9.840917069729e-15 
   58       2.783728518557e-10       2.755923649931e-14       2.706999630955e-13       1.146192647065e-16       3.362488534956e-11      -1.058247263530e-11      -1.028712362824e-14 
   59       2.782835906528e-10       2.902938783489e-14       2.248336894177e-13       1.186251607937e-16       3.232911435076e-11      -1.031722832664e-11      -1.061387149751e-14 
   60       2.784029074748e-10       3.054300205366e-14       1.764910024139e-13       1.226995703942e-16       3.109484189372e-11      -1.005873357349e-11      -1.081477466671e-14 
   61       2.787307841922e-10       3.209903779220e-14       1.257628286827e-13       1.268423997341e-16       2.992160917400e-11      -9.807681024739e-12      -1.090278312312e-14 
   62       2.792624418809e-10       3.369627914244e-14       7.275339347943e-14       1.310535515399e-16       2.880739408725e-11      -9.564568467417e-12      -1.089382972829e-14 
   63       2.799880559514e-10       3.533332965638e-14       1.758061049602e-14       1.353329251758e-16       2.774852065399e-11      -9.329685246613e-12      -1.080696767664e-14 
   64       2.808924712782e-10       3.700860635070e-14      -3.962352835982e-14       1.396804167807e-16       2.673956844453e-11      -9.103098685357e-12      -1.066450795404e-14 
   65       2.819597901090e-10       3.872058188247e-14      -9.873912672158e-14       1.440959323738e-16       2.577485918387e-11      -8.884714527213e-12      -1.048834334338e-14 
   66       2.831889049853e-10       4.046858415543e-14      -1.597442233105e-13       1.485794300899e-16       2.485348594579e-11      -8.674503645264e-12      -1.028770682788e-14 
   67       2.845807559132e-10       4.225215583955e-14      -2.226464886673e-13       1.531308871604e-16       2.397519029068e-11      -8.472299212332e-12      -1.006905868910e-14 
   68       2.861336020634e-10       4.407082207143e-14      -2.874586123998e-13       1.577502882242e-16       2.313883347865e-11      -8.277715620447e-12      -9.839701407935e-15 
   69       2.878428732022e-10       4.592409140072e-14      -3.541986564392e-13       1.624376258273e-16       2.234235001122e-11      -8.090136971294e-12      -9.607810453230e-15 
   70       2.897010211228e-10       4.781145673665e-14      -4.228904082972e-13       1.671929009228e-16       2.158270117317e-11      -7.908705566666e-12      -9.382465070333e-15 
   71       2.916973710762e-10       4.973239629444e-14      -4.935637343222e-13       1.720161233707e-16       2.085582857427e-11      -7.732310398921e-12      -9.173679069666e-15 
   72       2.938211574934e-10       5.168625143807e-14      -5.662387113203e-13       1.769073192552e-16       2.015769256117e-11      -7.559883509067e-12      -8.990305657450e-15 
   73       2.960716359113e-10       5.367183095889e-14      -6.408737100960e-13       1.818665533536e-16       1.948772145157e-11      -7.391380495157e-12      -8.833217915679e-15 
   74       2.984496525800e-10       5.568773219506e-14      -7.174079385422e-13       1.868939119037e-16       1.884594350567e-11      -7.226968289158e-12      -8.700868860796e-15 
   75       3.009545575736e-10       5.773245557268e-14      -7.957767634912e-13       1.919894968122e-16       1.823193939869e-11      -7.066729561019e-12      -8.591283970368e-15 
   76       3.035841289221e-10       5.980440274165e-14      -8.759116936147e-13       1.971534263105e-16       1.764482053138e-11      -6.910658238067e-12      -8.502043433807e-15 
   77       3.063344967428e-10       6.190187471158e-14      -9.577403623232e-13       2.023858356100e-16       1.708320734050e-11      -6.758655024399e-12      -8.430264403086e-15 
   78       3.092000673727e-10       6.402306998766e-14      -1.041186510665e-12       2.076868775575e-16       1.654520760933e-11      -6.610522920276e-12      -8.372583243455e-15 
   79       3.121734474996e-10       6.616608270657e-14      -1.126169970229e-12       2.130567232906e-16       1.602839477816e-11      -6.465962741521e-12      -8.325137784161e-15 
   80       3.152473755012e-10       6.832899945365e-14      -1.212612660607e-12       2.184955560420e-16       1.553040757237e-11      -6.324683371651e-12      -8.284196799802e-15 
   81       3.184210686382e-10       7.051021317892e-14      -1.300457818924e-12       2.240035498708e-16       1.505091652914e-11      -6.186764426049e-12      -8.248213399080e-15 
   82       3.216948448150e-10       7.270816064992e-14      -1.389654094246e-12       2.295808884168e-16       1.458996099405e-11      -6.052348685696e-12      -8.216097507921e-15 
   83       3.250681751770e-10       7.492122857640e-14      -1.480149922449e-12       2.352277719442e-16       1.414734811045e-11      -5.921530638909e-12      -8.186594637550e-15 
   84       3.285396454130e-10       7.714775357363e-14      -1.571893620504e-12       2.409444178698e-16       1.372264263584e-11      -5.794354125412e-12      -8.158280120966e-15 
   85       3.321069170573e-10       7.938602212577e-14      -1.664833480751e-12       2.467310612918e-16       1.331515675826e-11      -5.670809980415e-12      -8.129553349410e-15 
   86       3.357666887920e-10       8.163427054914e-14      -1.758917865186e-12       2.525879555185e-16       1.292393991264e-11      -5.550833678683e-12      -8.098632008830e-15 
   87       3.395146577494e-10       8.389068495557e-14      -1.854095299738e-12       2.585153725966e-16       1.254776859721e-11      -5.434302978617e-12      -8.063546316360e-15 
   88       3.433454808143e-10       8.615340121570e-14      -1.950314568551e-12       2.645136038398e-16       1.218513618985e-11      -5.321035566322e-12      -8.022133256783e-15 
   89       3.472540092791e-10       8.842051747495e-14      -2.047521567760e-12       2.705829546702e-16       1.183460993116e-11      -5.210842207095e-12      -7.972598196306e-15 
   90       3.512392991221e-10       9.069013403132e-14      -2.145649095708e-12       2.767237270614e-16       1.149598824823e-11      -5.103700890569e-12      -7.915313251365e-15 
   91       3.553011614411e-10       9.296031967459e-14      -2.244625627396e-12       2.829362353018e-16       1.116930705947e-11      -4.999605789786e-12      -7.851291718915e-15 
   92       3.594389257547e-10       9.522909983993e-14      -2.344378457514e-12       2.892208118750e-16       1.085448415181e-11      -4.898512682571e-12      -7.781648510733e-15 
   93       3.636514203807e-10       9.749445675916e-14      -2.444833746166e-12       2.955778079021e-16       1.055131449770e-11      -4.800337427182e-12      -7.707602889923e-15 
   94       3.679369528152e-10       9.975432961223e-14      -2.545916564610e-12       3.020075935857e-16       1.025946557208e-11      -4.704954437955e-12      -7.630481207423e-15 
   95       3.722932901113e-10       1.020066146785e-13      -2.647550940989e-12       3.085105586533e-16       9.978472669431e-12      -4.612195160946e-12      -7.551719638505e-15 
   96       3.767176392576e-10       1.042491654882e-13      -2.749659906066e-12       3.150871128002e-16       9.707734220728e-12      -4.521846549584e-12      -7.472866919280e-15 
   97       3.812066275570e-10       1.064797929738e-13      -2.852165538956e-12       3.217376861332e-16       9.446507110476e-12      -4.433649540312e-12      -7.395587083208e-15 
   98       3.857562830057e-10       1.086962656212e-13      -2.954989012861e-12       3.284627296141e-16       9.193901993695e-12      -4.347297528237e-12      -7.321662197595e-15 
   99       3.903628295588e-10       1.108963638905e-13      -3.058051073114e-12       3.352627176493e-16       8.949085987323e-12      -4.262514124161e-12      -7.252586339210e-15 
  100       3.950252438710e-10       1.130780519447e-13      -3.161273449723e-12       3.421381553216e-16       8.711933625459e-12      -4.179302287551e-12      -7.188275985739e-15 
  101       3.997430259306e-10       1.152393306392e-13      -3.264577730789e-12       3.490895730110e-16       8.482459835653e-12      -4.097727813477e-12      -7.128181196228e-15 
  102       4.045154068592e-10       1.173781862218e-13      -3.367884998378e-12       3.561175248031e-16       8.260618648220e-12      -4.017842643101e-12      -7.071675885938e-15 
  103       4.093413391678e-10       1.194925911416e-13      -3.471115879494e-12       3.632225889587e-16       8.046301026877e-12      -3.939684300305e-12      -7.018055608180e-15 
  104       4.142194870133e-10       1.215805048582e-13      -3.574190597051e-12       3.704053683827e-16       7.839332699367e-12      -3.863275328328e-12      -6.966535336137e-15 
  105       4.191482164541e-10       1.236398746512e-13      -3.677029020849e-12       3.776664910937e-16       7.639471988091e-12      -3.788622726397e-12      -6.916247244691e-15 
  106       4.241255857067e-10       1.256686364292e-13      -3.779550718545e-12       3.850066106935e-16       7.446407640742e-12      -3.715717386359e-12      -6.866238492254e-15 
  107       4.291493354016e-10       1.276647155387e-13      -3.881675006632e-12       3.924264068363e-16       7.259756660932e-12      -3.644533529314e-12      -6.815469002592e-15 
