# dimensionless total [l(l+1)/2pi] C_l's
# for l=2 to 3000, i.e. number of multipoles equal to 2999
#
# -> if you prefer output in CAMB/HealPix/LensPix units/order, set 'format' to 'camb' in input file
# -> if you don't want to see such a header, set 'headers' to 'no' in input file
# -> for CMB lensing (phi), these are C_l^phi-phi for the lensing potential.
#    Remember the conversion factors:
#    C_l^dd (deflection) = l(l+1) C_l^phi-phi
#    C_l^gg (shear/convergence) = 1/4 (l(l+1))^2 C_l^phi-phi
#
# 1:l     2:TT                     3:EE                     4:TE                     5:BB                     6:phiphi                 7:TPhi                   8:Ephi               
    2       8.135964794429e-10       4.435475823780e-15       1.633048594661e-12       0.000000000000e+00       7.962748223176e-09      -7.073437927919e-11      -1.844323379116e-12 
    3       7.446327745570e-10       5.666290118766e-15       1.750935503512e-12       0.000000000000e+00       4.881101397812e-09      -1.100250293239e-11      -1.386908150010e-12 
    4       6.778833733279e-10       4.866825130327e-15       1.579888863028e-12       0.000000000000e+00       3.376532666968e-09       3.955974384984e-12      -8.945334395926e-13 
    5       6.192559888952e-10       3.222316043495e-15       1.277343933188e-12       0.000000000000e+00       2.510119162859e-09       6.658786350194e-12      -4.810232350015e-13 
    6       5.687927308708e-10       1.808039163248e-15       9.439933588513e-13       0.000000000000e+00       1.954106403711e-09       5.851368837772e-12      -1.777242655433e-13 
    7       5.253173208668e-10       1.019931943718e-15       6.431530844514e-13       0.000000000000e+00       1.571869796827e-09       4.048391952994e-12       1.398013703552e-14 
    8       4.876422508439e-10       7.169667505436e-16       4.068788312543e-13       0.000000000000e+00       1.295815397532e-09       2.156270273190e-12       1.095379547863e-13 
    9       4.547290647360e-10       6.123232976416e-16       2.449735328804e-13       0.000000000000e+00       1.088777702667e-09       5.204265173180e-13       1.330237703298e-13 
   10       4.257734649233e-10       5.283359590882e-16       1.524963676445e-13       0.000000000000e+00       9.288388371236e-10      -8.060580557037e-13       1.110992194227e-13 
   11       4.002000272118e-10       4.324317483789e-16       1.160684548724e-13       0.000000000000e+00       7.947877773530e-10      -1.106219518457e-12       6.880252163867e-14 
   12       3.774292509185e-10       3.562640245797e-16       1.190347710377e-13       0.000000000000e+00       6.942134580788e-10      -2.510761180664e-12       2.390352705266e-14 
   13       3.571103132590e-10       3.214667704329e-16       1.454179888496e-13       0.000000000000e+00       6.116623483756e-10      -3.232547610074e-12      -1.094238327818e-14 
   14       3.389269787291e-10       3.218203716049e-16       1.822060335981e-13       0.000000000000e+00       5.429939425912e-10      -4.188691506483e-12      -3.128663846568e-14 
   15       3.226262165573e-10       3.419319551463e-16       2.203371103953e-13       0.000000000000e+00       4.852077302656e-10      -4.748256709655e-12      -3.717712133367e-14 
   16       3.079185357990e-10       3.751335600610e-16       2.546669367257e-13       0.000000000000e+00       4.360855438209e-10      -5.206348784916e-12      -3.257715096165e-14 
   17       2.946714745207e-10       4.249283623259e-16       2.832375328086e-13       0.000000000000e+00       3.939554527839e-10      -5.564539949003e-12      -2.278761695203e-14 
   18       2.826587454429e-10       4.967703397680e-16       3.065416932437e-13       0.000000000000e+00       3.574002547601e-10      -5.820532951929e-12      -1.288658077268e-14 
   19       2.718692534353e-10       5.916556461514e-16       3.259057361601e-13       0.000000000000e+00       3.258260454065e-10      -6.006998466909e-12      -5.662175669938e-15 
   20       2.620601051860e-10       7.082339228635e-16       3.432344408180e-13       0.000000000000e+00       2.980256232753e-10      -6.149425238264e-12      -3.056716589353e-15 
   21       2.532014255892e-10       8.457012545252e-16       3.596409184578e-13       0.000000000000e+00       2.735592932785e-10      -6.262911427155e-12      -4.632176033112e-15 
   22       2.451641109328e-10       1.002940457682e-15       3.759982757176e-13       0.000000000000e+00       2.518359092167e-10      -6.357598175241e-12      -8.736176355840e-15 
   23       2.379166206805e-10       1.179294471709e-15       3.923120635083e-13       0.000000000000e+00       2.325633969771e-10      -6.425070740080e-12      -1.361696148820e-14 
   24       2.313461865084e-10       1.374059742911e-15       4.082258146012e-13       0.000000000000e+00       2.153005234812e-10      -6.452352390254e-12      -1.737142953526e-14 
   25       2.254088631067e-10       1.587145524344e-15       4.232621855573e-13       0.000000000000e+00       1.998116884005e-10      -6.445195133109e-12      -1.914098618781e-14 
   26       2.200167749972e-10       1.818901427035e-15       4.369094549417e-13       0.000000000000e+00       1.857921982709e-10      -6.415876450107e-12      -1.855223038069e-14 
   27       2.151847358904e-10       2.071325102994e-15       4.490308678619e-13       0.000000000000e+00       1.731686270961e-10      -6.371667099155e-12      -1.612007558341e-14 
   28       2.108820728632e-10       2.347292962394e-15       4.596251838050e-13       0.000000000000e+00       1.617874454340e-10      -6.318912173223e-12      -1.287255124282e-14 
   29       2.070112425646e-10       2.649767418876e-15       4.687353325027e-13       0.000000000000e+00       1.513715941248e-10      -6.262760555475e-12      -9.964507229911e-15 
   30       2.035703932703e-10       2.980085992296e-15       4.764815436415e-13       0.000000000000e+00       1.418631183446e-10      -6.200059876636e-12      -7.834258095548e-15 
   31       2.005400396223e-10       3.338990184826e-15       4.830471223132e-13       0.000000000000e+00       1.331908853518e-10      -6.123305615529e-12      -6.725426644391e-15 
   32       1.978601729026e-10       3.727135573585e-15       4.886064575477e-13       0.000000000000e+00       1.252170376515e-10      -6.025677603735e-12      -6.784441465361e-15 
   33       1.955218652795e-10       4.145413167540e-15       4.930894590226e-13       0.000000000000e+00       1.178977342911e-10      -5.913266379350e-12      -7.649384808146e-15 
   34       1.935003623646e-10       4.594730679651e-15       4.963272924387e-13       0.000000000000e+00       1.111677588101e-10      -5.797392591367e-12      -8.694102083942e-15 
   35       1.917487965692e-10       5.075947015989e-15       4.981333574761e-13       0.000000000000e+00       1.049264942306e-10      -5.688992254254e-12      -9.285443579800e-15 
   36       1.902745828200e-10       5.589957438696e-15       4.983845633392e-13       0.000000000000e+00       9.915752372189e-11      -5.589755264792e-12      -9.346729937337e-15 
   37       1.890841199949e-10       6.137629436126e-15       4.969642693146e-13       0.000000000000e+00       9.384260077135e-11      -5.497869070064e-12      -8.984971819243e-15 
   38       1.881594385534e-10       6.719774808206e-15       4.937387824151e-13       0.000000000000e+00       8.892550088345e-11      -5.410219440414e-12      -8.345202639630e-15 
   39       1.874683838910e-10       7.337136949746e-15       4.885985700730e-13       0.000000000000e+00       8.433224972857e-11      -5.323166449571e-12      -7.593544466949e-15 
   40       1.870052841971e-10       7.990357691797e-15       4.816025688355e-13       0.000000000000e+00       8.004862285344e-11      -5.235469717619e-12      -6.852638027124e-15 
   41       1.867600608043e-10       8.679992127227e-15       4.728804916432e-13       0.000000000000e+00       7.606320954031e-11      -5.146168602393e-12      -6.248890379919e-15 
   42       1.867053373671e-10       9.406511366854e-15       4.625960056207e-13       0.000000000000e+00       7.234429125835e-11      -5.053731370544e-12      -5.931597143833e-15 
   43       1.868080747882e-10       1.017037807098e-14       4.508927885653e-13       0.000000000000e+00       6.885153220875e-11      -4.956732176504e-12      -6.026303753974e-15 
   44       1.870723433988e-10       1.097231274317e-14       4.377085247825e-13       0.000000000000e+00       6.557944686831e-11      -4.856245723339e-12      -6.474429174054e-15 
   45       1.875073740556e-10       1.181310224564e-14       4.229058111771e-13       0.000000000000e+00       6.252461123345e-11      -4.754119946363e-12      -7.145829307388e-15 
   46       1.881149520779e-10       1.269352681843e-14       4.063210256662e-13       0.000000000000e+00       5.967261432071e-11      -4.652315741551e-12      -7.880705265760e-15 
   47       1.888887582317e-10       1.361436029216e-14       3.877625252613e-13       0.000000000000e+00       5.699720217880e-11      -4.552905751044e-12      -8.487871697552e-15 
   48       1.898178452916e-10       1.457624948089e-14       3.670572066231e-13       0.000000000000e+00       5.446833969889e-11      -4.457697116660e-12      -8.796694712742e-15 
   49       1.908997642816e-10       1.557931166190e-14       3.442099123822e-13       0.000000000000e+00       5.208108062148e-11      -4.366976825426e-12      -8.834258867273e-15 
   50       1.921300060981e-10       1.662342399591e-14       3.192858636116e-13       0.000000000000e+00       4.983336494741e-11      -4.280410605673e-12      -8.695166175542e-15 
   51       1.934977519972e-10       1.770832863532e-14       2.923668697431e-13       0.000000000000e+00       4.771742054155e-11      -4.197368182480e-12      -8.493208640569e-15 
   52       1.949854255780e-10       1.883362677261e-14       2.635519941228e-13       0.000000000000e+00       4.571936213446e-11      -4.116902877879e-12      -8.362374826861e-15 
   53       1.965744988071e-10       1.999894570154e-14       2.329277200774e-13       0.000000000000e+00       4.382353847220e-11      -4.038010121674e-12      -8.423273304402e-15 
   54       1.982656941384e-10       2.120450413393e-14       2.004679106098e-13       0.000000000000e+00       4.202780916581e-11      -3.960527982968e-12      -8.669949645037e-15 
   55       2.000631963941e-10       2.245068187736e-14       1.661092840220e-13       0.000000000000e+00       4.033149729178e-11      -3.884432649939e-12      -9.055719537874e-15 
   56       2.019686718239e-10       2.373786081996e-14       1.297790622474e-13       0.000000000000e+00       3.873078772594e-11      -3.809571278919e-12      -9.524770918513e-15 
   57       2.039810823108e-10       2.506642623312e-14       9.139435760171e-14       0.000000000000e+00       3.721852522894e-11      -3.735653288951e-12      -1.001172051555e-14 
   58       2.060964995793e-10       2.643676807409e-14       5.086155953413e-14       0.000000000000e+00       3.578401253171e-11      -3.662241656356e-12      -1.044117039707e-14 
   59       2.083098430621e-10       2.784910070271e-14       8.103308443085e-15       0.000000000000e+00       3.441594723951e-11      -3.588936071425e-12      -1.074503148803e-14 
   60       2.106209867578e-10       2.930287018232e-14      -3.685187513970e-14       0.000000000000e+00       3.311248757832e-11      -3.515991849810e-12      -1.092019919088e-14 
   61       2.130297447255e-10       3.079721139410e-14      -8.393945200710e-14       0.000000000000e+00       3.187317151358e-11      -3.443829620596e-12      -1.098351182391e-14 
   62       2.155339539979e-10       3.233111276714e-14      -1.330843058841e-13       0.000000000000e+00       3.069588989882e-11      -3.372853944944e-12      -1.095531689393e-14 
   63       2.181293539974e-10       3.390341142564e-14      -1.842004215221e-13       0.000000000000e+00       2.957679096185e-11      -3.303451114453e-12      -1.085962991299e-14 
   64       2.208094659519e-10       3.551278833611e-14      -2.371905627930e-13       0.000000000000e+00       2.851018479075e-11      -3.235986949522e-12      -1.072429321508e-14 
   65       2.235675659277e-10       3.715794742171e-14      -2.919662201129e-13       0.000000000000e+00       2.749010843556e-11      -3.170748456278e-12      -1.057549515846e-14 
   66       2.264033604484e-10       3.883820789510e-14      -3.485130858970e-13       0.000000000000e+00       2.651562100783e-11      -3.107759381206e-12      -1.041962188646e-14 
   67       2.293175132788e-10       4.055302906730e-14      -4.068389112085e-13       0.000000000000e+00       2.558646256502e-11      -3.046921543132e-12      -1.025783462679e-14 
   68       2.323096156964e-10       4.230183773737e-14      -4.669547004918e-13       0.000000000000e+00       2.470144430109e-11      -2.988063826303e-12      -1.009137120559e-14 
   69       2.353781244704e-10       4.408402848564e-14      -5.288749566416e-13       0.000000000000e+00       2.385839948333e-11      -2.930938408353e-12      -9.921547112599e-15 
   70       2.385202998403e-10       4.589896396677e-14      -5.926179260712e-13       0.000000000000e+00       2.305413438924e-11      -2.875216988284e-12      -9.749756566477e-15 
   71       2.417321434943e-10       4.774597520292e-14      -6.582058437809e-13       0.000000000000e+00       2.228437924343e-11      -2.820487014430e-12      -9.577473580004e-15 
   72       2.450096052370e-10       4.962428219573e-14      -7.256522701101e-13       0.000000000000e+00       2.154488346559e-11      -2.766361437267e-12      -9.406286569508e-15 
   73       2.483526089638e-10       5.153273746912e-14      -7.949207423404e-13       0.000000000000e+00       2.083505383206e-11      -2.712840739604e-12      -9.238007506835e-15 
   74       2.517616909879e-10       5.347003360011e-14      -8.659585921940e-13       0.000000000000e+00       2.015492924590e-11      -2.660013904970e-12      -9.074585741711e-15 
   75       2.552367673301e-10       5.543477703809e-14      -9.387091021152e-13       0.000000000000e+00       1.950407575496e-11      -2.607949889991e-12      -8.918078113945e-15 
   76       2.587771006631e-10       5.742548657877e-14      -1.013111455628e-12       0.000000000000e+00       1.888156361463e-11      -2.556696444253e-12      -8.770650784532e-15 
   77       2.623812672555e-10       5.944059183815e-14      -1.089100687695e-12       0.000000000000e+00       1.828594435049e-11      -2.506278930168e-12      -8.634581066741e-15 
   78       2.660471239165e-10       6.147843172637e-14      -1.166607635076e-12       0.000000000000e+00       1.771522782108e-11      -2.456699142838e-12      -8.512259257219e-15 
   79       2.697717749393e-10       6.353725292172e-14      -1.245558886682e-12       0.000000000000e+00       1.716685928051e-11      -2.407934129918e-12      -8.406190467081e-15 
   80       2.735523720382e-10       6.561528450290e-14      -1.325882827084e-12       0.000000000000e+00       1.663835224306e-11      -2.359960576869e-12      -8.318258241589e-15 
   81       2.773887468670e-10       6.771098012973e-14      -1.407529084934e-12       0.000000000000e+00       1.612936411180e-11      -2.312835436061e-12      -8.247364114712e-15 
   82       2.812811774763e-10       6.982281533206e-14      -1.490452387262e-12       0.000000000000e+00       1.563994083138e-11      -2.266627211405e-12      -8.191379548716e-15 
   83       2.852295785690e-10       7.194921497310e-14      -1.574606828541e-12       0.000000000000e+00       1.516988247622e-11      -2.221390940862e-12      -8.147836079055e-15 
   84       2.892334838704e-10       7.408855313365e-14      -1.659945933886e-12       0.000000000000e+00       1.471873245773e-11      -2.177167489742e-12      -8.113913474886e-15 
   85       2.932920284985e-10       7.623915299641e-14      -1.746422722241e-12       0.000000000000e+00       1.428576673143e-11      -2.133982843999e-12      -8.086427899581e-15 
   86       2.974039313335e-10       7.839928673025e-14      -1.833989769578e-12       0.000000000000e+00       1.386998300419e-11      -2.091847403531e-12      -8.061820071243e-15 
   87       3.015674773880e-10       8.056717537447e-14      -1.922599272089e-12       0.000000000000e+00       1.347008994134e-11      -2.050755275474e-12      -8.036143423221e-15 
   88       3.057805001769e-10       8.274098872304e-14      -2.012203109380e-12       0.000000000000e+00       1.308449637392e-11      -2.010683567505e-12      -8.005052264622e-15 
   89       3.100408825377e-10       8.491886381190e-14      -2.102750413065e-12       0.000000000000e+00       1.271168925326e-11      -1.971602932307e-12      -7.964784286662e-15 
   90       3.143481875558e-10       8.709896395633e-14      -2.194179697689e-12       0.000000000000e+00       1.235145898792e-11      -1.933512637077e-12      -7.915310519496e-15 
   91       3.187022521868e-10       8.927942880447e-14      -2.286425606088e-12       0.000000000000e+00       1.200384733166e-11      -1.896409718842e-12      -7.857659986578e-15 
   92       3.231026818561e-10       9.145835671947e-14      -2.379421319565e-12       0.000000000000e+00       1.166877084770e-11      -1.860277692387e-12      -7.792972360779e-15 
   93       3.275488405956e-10       9.363380494246e-14      -2.473098583714e-12       0.000000000000e+00       1.134601593983e-11      -1.825086012108e-12      -7.722501021462e-15 
   94       3.320398411807e-10       9.580378975553e-14      -2.567387734235e-12       0.000000000000e+00       1.103523388349e-11      -1.790789533864e-12      -7.647616111573e-15 
   95       3.365745352680e-10       9.796628664468e-14      -2.662217722763e-12       0.000000000000e+00       1.073593585693e-11      -1.757327976836e-12      -7.569807594711e-15 
   96       3.411515035312e-10       1.001192304628e-13      -2.757516142687e-12       0.000000000000e+00       1.044748797228e-11      -1.724625385377e-12      -7.490688312218e-15 
   97       3.457690457990e-10       1.022605155926e-13      -2.853209254971e-12       0.000000000000e+00       1.016910630666e-11      -1.692589590870e-12      -7.411997040253e-15 
   98       3.504251711918e-10       1.043879961098e-13      -2.949222013978e-12       0.000000000000e+00       9.899851933321e-12      -1.661111673579e-12      -7.335601546878e-15 
   99       3.551179703329e-10       1.064995363261e-13      -3.045479027510e-12       0.000000000000e+00       9.638845486042e-12      -1.630094378383e-12      -7.263099696332e-15 
  100       3.598468134577e-10       1.085931702372e-13      -3.141907536285e-12       0.000000000000e+00       9.385956270402e-12      -1.599543117676e-12      -7.194551685634e-15 
  101       3.646113044738e-10       1.106669650670e-13      -3.238434906412e-12       0.000000000000e+00       9.141201982568e-12      -1.569486918496e-12      -7.129573083981e-15 
  102       3.694109088598e-10       1.127189736660e-13      -3.334987769495e-12       0.000000000000e+00       8.904535605075e-12      -1.539950433761e-12      -7.067718973570e-15 
  103       3.742449484345e-10       1.147472352850e-13      -3.431492059775e-12       0.000000000000e+00       8.675843098940e-12      -1.510953755084e-12      -7.008482134525e-15 
  104       3.791125961245e-10       1.167497763488e-13      -3.527873051283e-12       0.000000000000e+00       8.454941095784e-12      -1.482512225580e-12      -6.951291229817e-15 
  105       3.840128707325e-10       1.187246112295e-13      -3.624055394978e-12       0.000000000000e+00       8.241574589953e-12      -1.454636252680e-12      -6.895508990199e-15 
  106       3.889446317055e-10       1.206697430205e-13      -3.719963155898e-12       0.000000000000e+00       8.035414630637e-12      -1.427331120937e-12      -6.840430399124e-15 
  107       3.939065739034e-10       1.225831643100e-13      -3.815519850303e-12       0.000000000000e+00       7.836056013986e-12      -1.400596804839e-12      -6.785280877673e-15 
