# dimensionless total [l(l+1)/2pi] C_l's
# for l=2 to 3000, i.e. number of multipoles equal to 2999
#
# -> if you prefer output in CAMB/HealPix/LensPix units/order, set 'format' to 'camb' in input file
# -> if you don't want to see such a header, set 'headers' to 'no' in input file
# -> for CMB lensing (phi), these are C_l^phi-phi for the lensing potential.
#    Remember the conversion factors:
#    C_l^dd (deflection) = l(l+1) C_l^phi-phi
#    C_l^gg (shear/convergence) = 1/4 (l(l+1))^2 C_l^phi-phi
#
# 1:l     2:TT                     3:EE                     4:TE                     5:BB                     6:phiphi                 7:TPhi                   8:Ephi               
    2       1.380917462839e-10       4.175858201135e-15       3.515773665705e-13       0.000000000000e+00       8.273236647010e-09       4.554538229917e-10      -1.840586693885e-12 
    3       1.305564175310e-10       5.350814841022e-15       3.951632602956e-13       0.000000000000e+00       5.076728728547e-09       3.219271293565e-10      -1.393864516731e-12 
    4       1.234837145006e-10       4.626468643230e-15       3.695421181378e-13       0.000000000000e+00       3.514618523826e-09       2.432069714154e-10      -9.122262503262e-13 
    5       1.181942870890e-10       3.084813132665e-15       3.146978581382e-13       0.000000000000e+00       2.614535849267e-09       1.917670389755e-10      -5.067218719241e-13 
    6       1.145686411152e-10       1.723973802390e-15       2.534521174727e-13       0.000000000000e+00       2.036644271476e-09       1.557781766120e-10      -2.080226770567e-13 
    7       1.122071166006e-10       9.313265542658e-16       1.990016621858e-13       0.000000000000e+00       1.639186597203e-09       1.293882633116e-10      -1.762712119870e-14 
    8       1.108294498187e-10       6.010250243715e-16       1.571194395115e-13       0.000000000000e+00       1.352012337025e-09       1.093945748667e-10       7.940780553264e-14 
    9       1.101874283962e-10       4.824097087088e-16       1.290852184442e-13       0.000000000000e+00       1.136546996936e-09       9.389926545891e-11       1.064210023388e-13 
   10       1.100506556886e-10       4.107566622398e-16       1.135749983016e-13       0.000000000000e+00       9.700361853720e-10       8.163512755629e-11       8.925780914683e-14 
   11       1.103600179664e-10       3.446630111645e-16       1.079309754590e-13       0.000000000000e+00       8.303550849488e-10       7.247160887208e-11       5.200644047169e-14 
   12       1.109643924156e-10       2.997805835891e-16       1.090961420375e-13       0.000000000000e+00       7.255777633524e-10       6.402928671868e-11       1.224700495547e-14 
   13       1.118131630805e-10       2.871115543544e-16       1.143878364688e-13       0.000000000000e+00       6.395505844058e-10       5.717422507938e-11      -1.802367792386e-14 
   14       1.128585747025e-10       2.986870917183e-16       1.217853940783e-13       0.000000000000e+00       5.679683742679e-10       5.120478206453e-11      -3.454720569491e-14 
   15       1.140878000518e-10       3.227650830736e-16       1.300005633931e-13       0.000000000000e+00       5.077128384251e-10       4.618480669920e-11      -3.753122316438e-14 
   16       1.154260882209e-10       3.568199987861e-16       1.383708958663e-13       0.000000000000e+00       4.564767313126e-10       4.185938660747e-11      -3.093787377549e-14 
   17       1.169004850388e-10       4.063880834310e-16       1.466744060739e-13       0.000000000000e+00       4.125208075726e-10       3.808584706352e-11      -1.996437037041e-14 
   18       1.184478952214e-10       4.768983654386e-16       1.551722632494e-13       0.000000000000e+00       3.743708365840e-10       3.479574488991e-11      -9.497506065513e-15 
   19       1.200796414810e-10       5.686771574797e-16       1.640877178622e-13       0.000000000000e+00       3.414102123704e-10       3.194169745186e-11      -2.138309001783e-15 
   20       1.217884733217e-10       6.797246131716e-16       1.735605985058e-13       0.000000000000e+00       3.123819270977e-10       2.940949434146e-11       4.053628921269e-16 
   21       1.235756658850e-10       8.094048901138e-16       1.835419850827e-13       0.000000000000e+00       2.868288832583e-10       2.715300748112e-11      -1.303005455447e-15 
   22       1.254151803449e-10       9.572306559544e-16       1.938437624243e-13       0.000000000000e+00       2.641353616319e-10       2.511520623149e-11      -5.519141048138e-15 
   23       1.273133537786e-10       1.123371503347e-15       2.041428501180e-13       0.000000000000e+00       2.439972192156e-10       2.328742920107e-11      -1.048965407649e-14 
   24       1.292644133910e-10       1.308043189538e-15       2.140266326237e-13       0.000000000000e+00       2.259543375679e-10       2.165298517221e-11      -1.434713846115e-14 
   25       1.312631549226e-10       1.511460578849e-15       2.231874056916e-13       0.000000000000e+00       2.097617092704e-10       2.018965182995e-11      -1.628008446742e-14 
   26       1.332919397916e-10       1.733993832626e-15       2.313615382050e-13       0.000000000000e+00       1.951021796787e-10       1.886069563303e-11      -1.596248079893e-14 
   27       1.353603575407e-10       1.977274586964e-15       2.384774490497e-13       0.000000000000e+00       1.818995502489e-10       1.765681798920e-11      -1.390637258859e-14 
   28       1.374710913531e-10       2.243560331503e-15       2.445466778089e-13       0.000000000000e+00       1.699936232982e-10       1.656263914234e-11      -1.111533630084e-14 
   29       1.396132349512e-10       2.535132750497e-15       2.496117339574e-13       0.000000000000e+00       1.590950538010e-10       1.555188950617e-11      -8.709083497356e-15 
   30       1.417933721043e-10       2.853084230918e-15       2.537209115280e-13       0.000000000000e+00       1.491436068317e-10       1.462347481395e-11      -7.076615140127e-15 
   31       1.440131985254e-10       3.198041026479e-15       2.569480632157e-13       0.000000000000e+00       1.400652744697e-10       1.377743061616e-11      -6.398589758587e-15 
   32       1.462646537274e-10       3.570575588774e-15       2.593608985294e-13       0.000000000000e+00       1.317162621408e-10       1.300679548397e-11      -6.762919833470e-15 
   33       1.485472044713e-10       3.971625182617e-15       2.608787779049e-13       0.000000000000e+00       1.240509905779e-10       1.230496655660e-11      -7.817278038493e-15 
   34       1.508544886184e-10       4.402217276141e-15       2.613611126464e-13       0.000000000000e+00       1.170014737887e-10       1.165961820776e-11      -8.973880142377e-15 
   35       1.531752275399e-10       4.863342960490e-15       2.606584584625e-13       0.000000000000e+00       1.104626681237e-10       1.105496158441e-11      -9.641901266398e-15 
   36       1.555163884133e-10       5.355904271227e-15       2.586683550174e-13       0.000000000000e+00       1.044175376865e-10       1.048888108198e-11      -9.758690660380e-15 
   37       1.578865695101e-10       5.880742918502e-15       2.552970689287e-13       0.000000000000e+00       9.884708211338e-11       9.960929682623e-12      -9.438885739180e-15 
   38       1.602890345300e-10       6.438649269207e-15       2.504441625625e-13       0.000000000000e+00       9.369252784939e-11       9.467393305335e-12      -8.837504754879e-15 
   39       1.627227916906e-10       7.030350320201e-15       2.440268050678e-13       0.000000000000e+00       8.887651018781e-11       9.003053321441e-12      -8.128811091289e-15 
   40       1.651878564569e-10       7.656478156245e-15       2.360639003857e-13       0.000000000000e+00       8.438423179790e-11       8.567953048763e-12      -7.427000028946e-15 
   41       1.676806938449e-10       8.317584216970e-15       2.266198044567e-13       0.000000000000e+00       8.020383601749e-11       8.162418204135e-12      -6.843447976990e-15 
   42       1.701921308512e-10       9.014142041514e-15       2.157833598965e-13       0.000000000000e+00       7.630219179541e-11       7.785031832745e-12      -6.509612206232e-15 
   43       1.727118162039e-10       9.746608647481e-15       2.036343174747e-13       0.000000000000e+00       7.263713526253e-11       7.433321483148e-12      -6.536443887213e-15 
   44       1.752445000273e-10       1.051564230621e-14       1.901267795767e-13       0.000000000000e+00       6.920298998916e-11       7.106441495167e-12      -6.874808912728e-15 
   45       1.777979488718e-10       1.132194500870e-14       1.751717687174e-13       0.000000000000e+00       6.599622729295e-11       6.803067550308e-12      -7.413463569129e-15 
   46       1.803782034178e-10       1.216620208680e-14       1.586682491056e-13       0.000000000000e+00       6.300179967012e-11       6.520530610483e-12      -8.015535043428e-15 
   47       1.829893713613e-10       1.304908184211e-14       1.405023103872e-13       0.000000000000e+00       6.019224292065e-11       6.254716361281e-12      -8.517019623105e-15 
   48       1.856336109544e-10       1.397114725499e-14       1.205697836085e-13       0.000000000000e+00       5.753612412111e-11       6.001248388778e-12      -8.771612707295e-15 
   49       1.883115594086e-10       1.493256254715e-14       9.885353236267e-14       0.000000000000e+00       5.502829657518e-11       5.759666734600e-12      -8.803646377855e-15 
   50       1.910216694072e-10       1.593330326508e-14       7.536654665010e-14       0.000000000000e+00       5.266663071350e-11       5.530254456616e-12      -8.695682795579e-15 
   51       1.937598364638e-10       1.697323224066e-14       5.013078283025e-14       0.000000000000e+00       5.044300217940e-11       5.312822538248e-12      -8.546787247434e-15 
   52       1.965192015354e-10       1.805209473438e-14       2.317754288619e-14       0.000000000000e+00       4.834287078300e-11       5.106674828348e-12      -8.473390214300e-15 
   53       1.992928174863e-10       1.916963707473e-14      -5.466005656576e-15       0.000000000000e+00       4.634984168883e-11       4.910908407687e-12      -8.579447238957e-15 
   54       2.020829078140e-10       2.032600957181e-14      -3.582221245575e-14       0.000000000000e+00       4.446169514083e-11       4.725486069512e-12      -8.855925805977e-15 
   55       2.048936447208e-10       2.152145874535e-14      -6.792857046681e-14       0.000000000000e+00       4.267774484386e-11       4.550378514923e-12      -9.256974691858e-15 
   56       2.077284180884e-10       2.275621321125e-14      -1.018250753710e-13       0.000000000000e+00       4.099400915575e-11       4.385232542170e-12      -9.727948146582e-15 
   57       2.105897581682e-10       2.403048400282e-14      -1.375544274154e-13       0.000000000000e+00       3.940299894012e-11       4.229350050539e-12      -1.020498065737e-14 
   58       2.134792582716e-10       2.534446489200e-14      -1.751622332537e-13       0.000000000000e+00       3.789350541921e-11       4.081667044247e-12      -1.061456171247e-14 
   59       2.163978898344e-10       2.669821470438e-14      -2.146842598894e-13       0.000000000000e+00       3.645368276997e-11       3.941039580969e-12      -1.089107616656e-14 
   60       2.193472086358e-10       2.809127162030e-14      -2.561042815325e-13       0.000000000000e+00       3.508161369638e-11       3.807226848891e-12      -1.103514783728e-14 
   61       2.223282925637e-10       2.952294971148e-14      -2.993867828548e-13       0.000000000000e+00       3.377682691826e-11       3.680099687514e-12      -1.106811756364e-14 
   62       2.253413111677e-10       3.099244546783e-14      -3.444888139375e-13       0.000000000000e+00       3.253711975511e-11       3.559343341362e-12      -1.101544892827e-14 
   63       2.283854616507e-10       3.249883411845e-14      -3.913597531993e-13       0.000000000000e+00       3.135845766518e-11       3.444446868774e-12      -1.090691202464e-14 
   64       2.314589048596e-10       3.404106595263e-14      -4.399410703250e-13       0.000000000000e+00       3.023487378451e-11       3.334692550697e-12      -1.077676722427e-14 
   65       2.345596784413e-10       3.561808080841e-14      -4.901789059862e-13       0.000000000000e+00       2.916011363810e-11       3.229352140136e-12      -1.065622118637e-14 
   66       2.376888048595e-10       3.722918798365e-14      -5.420654400477e-13       0.000000000000e+00       2.813319977640e-11       3.128347707553e-12      -1.054852513516e-14 
   67       2.408477291253e-10       3.887376044469e-14      -5.956058865300e-13       0.000000000000e+00       2.715386953146e-11       3.031712231860e-12      -1.044891574708e-14 
   68       2.440373637232e-10       4.055112339189e-14      -6.508065690586e-13       0.000000000000e+00       2.622088315418e-11       2.939390393666e-12      -1.035184576825e-14 
   69       2.472580519358e-10       4.226055388590e-14      -7.076750423035e-13       0.000000000000e+00       2.533197216935e-11       2.851233769827e-12      -1.025095162066e-14 
   70       2.505095311682e-10       4.400128047414e-14      -7.662202134200e-13       0.000000000000e+00       2.448378773070e-11       2.766996027990e-12      -1.013902100825e-14 
   71       2.537908962724e-10       4.577248281718e-14      -8.264524634885e-13       0.000000000000e+00       2.367184897594e-11       2.686328121134e-12      -1.000796052317e-14 
   72       2.571011838784e-10       4.757325653344e-14      -8.883752828396e-13       0.000000000000e+00       2.289169463546e-11       2.608871833696e-12      -9.851208490962e-15 
   73       2.604413367408e-10       4.940250075142e-14      -9.519580483444e-13       0.000000000000e+00       2.214270853803e-11       2.534571886759e-12      -9.671581680594e-15 
   74       2.638125519254e-10       5.125900819748e-14      -1.017158215859e-12       0.000000000000e+00       2.142493849905e-11       2.463415336155e-12      -9.474883241884e-15 
   75       2.672156710966e-10       5.314149691717e-14      -1.083929272270e-12       0.000000000000e+00       2.073793436734e-11       2.395336012607e-12      -9.267613955189e-15 
   76       2.706511580200e-10       5.504860910756e-14      -1.152220663187e-12       0.000000000000e+00       2.008072385169e-11       2.330211961741e-12      -9.056995664933e-15 
   77       2.741190760647e-10       5.697890994947e-14      -1.221977720636e-12       0.000000000000e+00       1.945178834749e-11       2.267862884102e-12      -8.850994713153e-15 
   78       2.776190657067e-10       5.893088643984e-14      -1.293141590755e-12       0.000000000000e+00       1.884903876326e-11       2.208047575167e-12      -8.658345373028e-15 
   79       2.811503220307e-10       6.090294622394e-14      -1.365649161483e-12       0.000000000000e+00       1.826979134728e-11       2.150461365361e-12      -8.488573282417e-15 
   80       2.847120371312e-10       6.289346892783e-14      -1.439438413761e-12       0.000000000000e+00       1.771143372269e-11       2.094811207563e-12      -8.349750942819e-15 
   81       2.883048652887e-10       6.490097299100e-14      -1.514465704444e-12       0.000000000000e+00       1.717360938140e-11       2.041061589111e-12      -8.241263762248e-15 
   82       2.919296723665e-10       6.692397581084e-14      -1.590691366895e-12       0.000000000000e+00       1.665637020976e-11       1.989226853011e-12      -8.159824615956e-15 
   83       2.955870798393e-10       6.896094362346e-14      -1.668074581769e-12       0.000000000000e+00       1.615950875965e-11       1.939296238854e-12      -8.101611918969e-15 
   84       2.992774509050e-10       7.101029130822e-14      -1.746573405137e-12       0.000000000000e+00       1.568254685664e-11       1.891232760746e-12      -8.062251060838e-15 
   85       3.030008765965e-10       7.307038219220e-14      -1.826144796617e-12       0.000000000000e+00       1.522472420828e-11       1.844972085242e-12      -8.036795840383e-15 
   86       3.067571618935e-10       7.513952785480e-14      -1.906744647501e-12       0.000000000000e+00       1.478498701228e-11       1.800421409274e-12      -8.019709900447e-15 
   87       3.105458118345e-10       7.721598793214e-14      -1.988327808885e-12       0.000000000000e+00       1.436197656472e-11       1.757458338083e-12      -8.004848162638e-15 
   88       3.143660176286e-10       7.929796992170e-14      -2.070848119795e-12       0.000000000000e+00       1.395401786835e-11       1.715929763150e-12      -7.985438262082e-15 
   89       3.182169678968e-10       8.138365402530e-14      -2.154256971377e-12       0.000000000000e+00       1.355951823335e-11       1.675689357861e-12      -7.955534001225e-15 
   90       3.220988686228e-10       8.347127257072e-14      -2.238498680017e-12       0.000000000000e+00       1.317825957007e-11       1.636719251163e-12      -7.914677474402e-15 
   91       3.260120583559e-10       8.555904274657e-14      -2.323514436858e-12       0.000000000000e+00       1.281028876976e-11       1.599025462032e-12      -7.863937476251e-15 
   92       3.299566884335e-10       8.764514284992e-14      -2.409243713245e-12       0.000000000000e+00       1.245552058190e-11       1.562600444907e-12      -7.804506025642e-15 
   93       3.339327139636e-10       8.972771246594e-14      -2.495624266918e-12       0.000000000000e+00       1.211373236465e-11       1.527422546170e-12      -7.737701853152e-15 
   94       3.379398848076e-10       9.180485264752e-14      -2.582592148212e-12       0.000000000000e+00       1.178455883526e-11       1.493455460617e-12      -7.664973888527e-15 
   95       3.419777365629e-10       9.387462609489e-14      -2.670081706251e-12       0.000000000000e+00       1.146748682055e-11       1.460647687932e-12      -7.587904748155e-15 
   96       3.460455815459e-10       9.593505733525e-14      -2.758025595147e-12       0.000000000000e+00       1.116185000731e-11       1.428931989161e-12      -7.508214222530e-15 
   97       3.501424997742e-10       9.798413290241e-14      -2.846354780197e-12       0.000000000000e+00       1.086682369274e-11       1.398224843186e-12      -7.427762763721e-15 
   98       3.542673299501e-10       1.000198015164e-13      -2.934998544077e-12       0.000000000000e+00       1.058141953489e-11       1.368425903198e-12      -7.348554972843e-15 
   99       3.584189588662e-10       1.020400208318e-13      -3.023885869498e-12       0.000000000000e+00       1.030471189936e-11       1.339441783833e-12      -7.272337644945e-15 
  100       3.625972558908e-10       1.040429048499e-13      -3.112949797231e-12       0.000000000000e+00       1.003656482828e-11       1.311262441848e-12      -7.199321402683e-15 
  101       3.668022547092e-10       1.060265978169e-13      -3.202123699739e-12       0.000000000000e+00       9.776998767082e-12       1.283894654729e-12      -7.129283629378e-15 
  102       3.710338613762e-10       1.079892302528e-13      -3.291339982384e-12       0.000000000000e+00       9.525965743049e-12       1.257338409736e-12      -7.061956348811e-15 
  103       3.752918489160e-10       1.099289196956e-13      -3.380530106310e-12       0.000000000000e+00       9.283346922924e-12       1.231586655291e-12      -6.997024798237e-15 
  104       3.795758519226e-10       1.118437714451e-13      -3.469624611321e-12       0.000000000000e+00       9.048950170595e-12       1.206625052372e-12      -6.934126001395e-15 
  105       3.838853611594e-10       1.137318793072e-13      -3.558553138767e-12       0.000000000000e+00       8.822507604755e-12       1.182431725900e-12      -6.872847341521e-15 
  106       3.882197181594e-10       1.155913263379e-13      -3.647244454417e-12       0.000000000000e+00       8.603673156562e-12       1.158977016133e-12      -6.812725134363e-15 
  107       3.925781098248e-10       1.174201855875e-13      -3.735626471349e-12       0.000000000000e+00       8.392020127305e-12       1.136223230056e-12      -6.753243201191e-15 
