# dimensionless total lensed [l(l+1)/2pi] C_l's
# for l=2 to 2500, i.e. number of multipoles equal to 2499
#
# -> if you prefer output in CAMB/HealPix/LensPix units/order, set 'format' to 'camb' in input file
# -> if you don't want to see such a header, set 'headers' to 'no' in input file
# -> for CMB lensing (phi), these are C_l^phi-phi for the lensing potential.
#    Remember the conversion factors:
#    C_l^dd (deflection) = l(l+1) C_l^phi-phi
#    C_l^gg (shear/convergence) = 1/4 (l(l+1))^2 C_l^phi-phi
#
# 1:l     2:TT                     3:EE                     4:TE                     5:BB                     6:phiphi                 7:TPhi                   8:Ephi               
    2       5.862525224661e-09       5.091626135951e-15       5.126383773910e-12       1.677033282767e-19       7.259135527621e-09      -1.258305949658e-09      -1.844375964298e-12 
    3       5.264786863446e-09       6.462737391129e-15       5.452488123334e-12       3.354932347850e-19       4.433756438714e-09      -7.568814256934e-10      -1.360844394690e-12 
    4       4.761687762861e-09       5.475575110758e-15       4.865591753677e-12       5.593461387089e-19       3.058830690794e-09      -5.291384155759e-10      -8.434630135896e-13 
    5       4.337997553007e-09       3.591520227450e-15       3.853027974089e-12       8.393729318034e-19       2.268781509725e-09      -4.041260204552e-10      -4.119644948654e-13 
    6       3.977170865236e-09       2.083996855093e-15       2.738259868994e-12       1.175708414331e-18       1.762634763390e-09      -3.258177981564e-10      -9.887358965205e-14 
    7       3.666094759867e-09       1.357541269872e-15       1.729059193876e-12       1.568508906328e-18       1.415181729829e-09      -2.725452871355e-10       9.493929944883e-14 
    8       3.394821930551e-09       1.162461718181e-15       9.346241829728e-13       2.017949528899e-18       1.164578933336e-09      -2.340248522393e-10       1.862140814977e-13 
    9       3.155853259840e-09       1.106335905599e-15       3.909608258543e-13       2.524221228191e-18       9.768692968246e-10      -2.048066938151e-10       2.007557770400e-13 
   10       2.943713405944e-09       9.768393392033e-16       8.394709401803e-14       3.087527620590e-18       8.320416668032e-10      -1.818424879277e-10       1.670876290082e-13 
   11       2.754110547055e-09       7.727210322062e-16      -3.012968078010e-14       3.708081741072e-18       7.114006148143e-10      -1.611456743357e-10       1.126769956550e-13 
   12       2.583549365892e-09       5.795440947606e-16      -7.296611208918e-15       4.386102777495e-18       6.205070857642e-10      -1.473033347426e-10       5.509419171613e-14 
   13       2.429464131543e-09       4.569205511149e-16       9.729956041239e-14       5.121812871872e-18       5.459773669421e-10      -1.344471537415e-10       8.857078777919e-15 
   14       2.289672085069e-09       4.081994378654e-16       2.376452339091e-13       5.915434065466e-18       4.840451381562e-10      -1.246142677186e-10      -2.114019215070e-14 
   15       2.162360343890e-09       4.082513725598e-16       3.807586316142e-13       6.767185457995e-18       4.319772285827e-10      -1.150625271799e-10      -3.455946765897e-14 
   16       2.045925265578e-09       4.363952259942e-16       5.071550191394e-13       7.677280642627e-18       3.877580474342e-10      -1.073289389155e-10      -3.525404282079e-14 
   17       1.939175945303e-09       4.872135461112e-16       6.087758792337e-13       8.645925468077e-18       3.498690797285e-10      -1.003279259720e-10      -2.879732650024e-14 
   18       1.840741473897e-09       5.636818570395e-16       6.861433012630e-13       9.673316030024e-18       3.170243505990e-10      -9.387268667070e-11      -2.067847102242e-14 
   19       1.750592415222e-09       6.677530511754e-16       7.435495457959e-13       1.075963787948e-17       2.886811718412e-10      -8.813683563744e-11      -1.410216455245e-14 
   20       1.666934218682e-09       7.994106464644e-16       7.882383383864e-13       1.190506343347e-17       2.637472982677e-10      -8.303992592995e-11      -1.156541720315e-14 
   21       1.589581120405e-09       9.574704352687e-16       8.251393590097e-13       1.310975340985e-17       2.418224413165e-10      -7.851436829545e-11      -1.293942933775e-14 
   22       1.517682201312e-09       1.139348489103e-15       8.589562280377e-13       1.437385412780e-17       2.223715738224e-10      -7.441560390977e-11      -1.681446253600e-14 
   23       1.451037447798e-09       1.342090258739e-15       8.912487380780e-13       1.569750063898e-17       2.051299999806e-10      -7.068037519247e-11      -2.146792788934e-14 
   24       1.388864973989e-09       1.562336672601e-15       9.224717813867e-13       1.708081355180e-17       1.896999744709e-10      -6.722593862283e-11      -2.494301610574e-14 
   25       1.330889976686e-09       1.799027803056e-15       9.519835321616e-13       1.852390273226e-17       1.758674539299e-10      -6.402840253761e-11      -2.629493711834e-14 
   26       1.276529121010e-09       2.052359373051e-15       9.787952949487e-13       2.002686518939e-17       1.633565466627e-10      -6.105651329524e-11      -2.506021375902e-14 
   27       1.225883604681e-09       2.325431079051e-15       1.002638808991e-12       2.158979322357e-17       1.520999430535e-10      -5.831394736940e-11      -2.175868103045e-14 
   28       1.178713928882e-09       2.623022050238e-15       1.023481541693e-12       2.321276715863e-17       1.419593833136e-10      -5.578509327935e-11      -1.746407723480e-14 
   29       1.134307395982e-09       2.950197798171e-15       1.041380806918e-12       2.489585568869e-17       1.326862866964e-10      -5.342640872231e-11      -1.339978224428e-14 
   30       1.092660757274e-09       3.309091219827e-15       1.056694773705e-12       2.663912907137e-17       1.242278268000e-10      -5.122325847359e-11      -1.011145642932e-14 
   31       1.053659517285e-09       3.700859862737e-15       1.069965771308e-12       2.844265028045e-17       1.165194786320e-10      -4.914952617732e-11      -7.982645416343e-15 
   32       1.016906721308e-09       4.126460623036e-15       1.081730349595e-12       3.030647430882e-17       1.094372312461e-10      -4.716671473140e-11      -7.290730947183e-15 
   33       9.823651098252e-10       4.586561794748e-15       1.092013673547e-12       3.223065893189e-17       1.029412450196e-10      -4.528244074298e-11      -7.656969125450e-15 
   34       9.498884371001e-10       5.081563040867e-15       1.100642639829e-12       3.421525764936e-17       9.697277646518e-11      -4.351060586042e-11      -8.376440093414e-15 
   35       9.191690899897e-10       5.611772899448e-15       1.107400292979e-12       3.626031905380e-17       9.144160253406e-11      -4.185615108406e-11      -8.728697746173e-15 
   36       8.902441904324e-10       6.178018496336e-15       1.112132588723e-12       3.836589453979e-17       8.633265958607e-11      -4.031910739725e-11      -8.608875771184e-15 
   37       8.631266575199e-10       6.781228754441e-15       1.114668466557e-12       4.053203338974e-17       8.162936514725e-11      -3.889005279830e-11      -8.108925889919e-15 
   38       8.376485355215e-10       7.422266610627e-15       1.114785209481e-12       4.275878092179e-17       7.728140847397e-11      -3.754765395452e-11      -7.353531409260e-15 
   39       8.135482184298e-10       8.101913532290e-15       1.112292968480e-12       4.504617875602e-17       7.322273055837e-11      -3.626592222899e-11      -6.491656524547e-15 
   40       7.908110099160e-10       8.820828694899e-15       1.107335134922e-12       4.739426536051e-17       6.944039352433e-11      -3.504159860412e-11      -5.661865476718e-15 
   41       7.694150188380e-10       9.579567638865e-15       1.100182044423e-12       4.980307594052e-17       6.592399529969e-11      -3.387428923217e-11      -5.019212791309e-15 
   42       7.492266304408e-10       1.037858596561e-14       1.091152122826e-12       5.227264249295e-17       6.264513068388e-11      -3.275848560035e-11      -4.746646569599e-15 
   43       7.300658976562e-10       1.121835153016e-14       1.080512889485e-12       5.480299100874e-17       5.956777015698e-11      -3.168657083344e-11      -4.996306090459e-15 
   44       7.119502872861e-10       1.209973647370e-14       1.068142720642e-12       5.739413166206e-17       5.668683897845e-11      -3.066003157627e-11      -5.687788633640e-15 
   45       6.949104221501e-10       1.302373771510e-14       1.053766724615e-12       6.004606582955e-17       5.399912313065e-11      -2.968097867864e-11      -6.649651928074e-15 
   46       6.789166194490e-10       1.399137128243e-14       1.037043998258e-12       6.275878875271e-17       5.149169362410e-11      -2.874876528590e-11      -7.672064146823e-15 
   47       6.638738620866e-10       1.500367401619e-14       1.017563089490e-12       6.553228950952e-17       4.914115096749e-11      -2.785975332708e-11      -8.504574445551e-15 
   48       6.496606604840e-10       1.606150056982e-14       9.949546550951e-13       6.836654727359e-17       4.692076587339e-11      -2.700900949889e-11      -8.923666329583e-15 
   49       6.362703255441e-10       1.716484277055e-14       9.692775741120e-13       7.126151891144e-17       4.482604451396e-11      -2.619650340631e-11      -8.963137620966e-15 
   50       6.237008789716e-10       1.831332132106e-14       9.407338792047e-13       7.421714784012e-17       4.285507171240e-11      -2.542225540240e-11      -8.744831317996e-15 
   51       6.119119189878e-10       1.950636522505e-14       9.095624705953e-13       7.723336722180e-17       4.100089992255e-11      -2.468442789344e-11      -8.415820871809e-15 
   52       6.008218309629e-10       2.074320304645e-14       8.760405579487e-13       8.031009974584e-17       3.925119656801e-11      -2.397919027083e-11      -8.149741073250e-15 
   53       5.903380765048e-10       2.202315430546e-14       8.404119033305e-13       8.344725834567e-17       3.759207788053e-11      -2.330203261887e-11      -8.104699897565e-15 
   54       5.804636254090e-10       2.334661175562e-14       8.026465685193e-13       8.664474906704e-17       3.602157958547e-11      -2.265241434089e-11      -8.281244629343e-15 
   55       5.712130304550e-10       2.471429645832e-14       7.626219014319e-13       8.990246855760e-17       3.453903546944e-11      -2.203007548960e-11      -8.630192286820e-15 
   56       5.625803736599e-10       2.612698351220e-14       7.201887368079e-13       9.322030302209e-17       3.314102094017e-11      -2.143361997260e-11      -9.092373162425e-15 
   57       5.545378638477e-10       2.758550589666e-14       6.751697689577e-13       9.659812804366e-17       3.182117590033e-11      -2.086044122948e-11      -9.598141204737e-15 
   58       5.470344342194e-10       2.909075831550e-14       6.273579245105e-13       1.000358084052e-16       3.057002762115e-11      -2.030664790901e-11      -1.006688440044e-14 
   59       5.400131348689e-10       3.064335619935e-14       5.765767961322e-13       1.035332065741e-16       2.937757559704e-11      -1.976831279133e-11      -1.042416135440e-14 
   60       5.334712121259e-10       3.224251150983e-14       5.228820282789e-13       1.070902108636e-16       2.824214937359e-11      -1.924572704642e-11      -1.065887025184e-14 
   61       5.274115276254e-10       3.388690219262e-14       4.664039063895e-13       1.107067135069e-16       2.716329838124e-11      -1.874000434186e-11      -1.077851449558e-14 
   62       5.218242404248e-10       3.557498637806e-14       4.072898747605e-13       1.143826026818e-16       2.613912902616e-11      -1.825181559944e-11      -1.079284950972e-14 
   63       5.166860416908e-10       3.730499453514e-14       3.457050130548e-13       1.181177626255e-16       2.516622119043e-11      -1.778135952805e-11      -1.071399061979e-14 
   64       5.119593893857e-10       3.907492162558e-14       2.818325128119e-13       1.219120737495e-16       2.423954473224e-11      -1.732833315663e-11      -1.055652093301e-14 
   65       5.076044606610e-10       4.088287130574e-14       2.158389865515e-13       1.257654260845e-16       2.335383295536e-11      -1.689214585847e-11      -1.033638675678e-14 
   66       5.036196701782e-10       4.272819088233e-14       1.477607854750e-13       1.296777626660e-16       2.250822865601e-11      -1.647268029468e-11      -1.006706964187e-14 
   67       5.000083901530e-10       4.461056340553e-14       7.759438648800e-14       1.336490455697e-16       2.170247567199e-11      -1.606964042640e-11      -9.762794094631e-15 
   68       4.967665879165e-10       4.652967879472e-14       5.328937449257e-15       1.376792438711e-16       2.093550678985e-11      -1.568230001085e-11      -9.439741086544e-15 
   69       4.938824163415e-10       4.848523584001e-14      -6.905425002386e-14       1.417683341336e-16       2.020540099948e-11      -1.530947994519e-11      -9.116122019436e-15 
   70       4.913358042689e-10       5.047694420380e-14      -1.455822077493e-13       1.459163008962e-16       1.950934074861e-11      -1.494952561036e-11      -8.812252690652e-15 
   71       4.890980469345e-10       5.250452642229e-14      -2.242908181746e-13       1.501231371613e-16       1.884356919741e-11      -1.460028421499e-11      -8.550627258247e-15 
   72       4.871401869230e-10       5.456752662141e-14      -3.052054793960e-13       1.543888517909e-16       1.820434775240e-11      -1.425967830616e-11      -8.350697919734e-15 
   73       4.854609296290e-10       5.666468970913e-14      -3.882776764561e-13       1.587134922534e-16       1.759113644337e-11      -1.392760409579e-11      -8.211889509852e-15 
   74       4.840633709523e-10       5.879446608143e-14      -4.734370948028e-13       1.630971271452e-16       1.700394961421e-11      -1.360435827130e-11      -8.127443042555e-15 
   75       4.829464762209e-10       6.095519197905e-14      -5.606104369490e-13       1.675398403034e-16       1.644239016482e-11      -1.329006522340e-11      -8.089375005195e-15 
   76       4.821048713151e-10       6.314508707619e-14      -6.497214766488e-13       1.720417314522e-16       1.590562964306e-11      -1.298466800116e-11      -8.088430449597e-15 
   77       4.815286337905e-10       6.536225206904e-14      -7.406911130738e-13       1.766029168477e-16       1.539238833672e-11      -1.268791926691e-11      -8.114036083123e-15 
   78       4.812030840018e-10       6.760466626447e-14      -8.334374249898e-13       1.812235299240e-16       1.490091536556e-11      -1.239937225131e-11      -8.154253359744e-15 
   79       4.811085762262e-10       6.987018516864e-14      -9.278757249331e-13       1.859037219386e-16       1.442896877326e-11      -1.211837170825e-11      -8.195731571107e-15 
   80       4.812258319593e-10       7.215667276500e-14      -1.023923200786e-12       1.906436551621e-16       1.397436742100e-11      -1.184427924070e-11      -8.226368907028e-15 
   81       4.815534659906e-10       7.446243010912e-14      -1.121513649627e-12       1.954434796655e-16       1.353680084440e-11      -1.157721424225e-11      -8.243931048726e-15 
   82       4.820931369545e-10       7.678583711273e-14      -1.220585413533e-12       2.003033536614e-16       1.311629883644e-11      -1.131742572257e-11      -8.248850707322e-15 
   83       4.828441708913e-10       7.912522454693e-14      -1.321077156427e-12       2.052234511012e-16       1.271267838740e-11      -1.106506473327e-11      -8.241655784161e-15 
   84       4.838034550036e-10       8.147887412503e-14      -1.422928003209e-12       2.102039621828e-16       1.232553436580e-11      -1.082017966313e-11      -8.222972609456e-15 
   85       4.849653314129e-10       8.384501858549e-14      -1.526077678885e-12       2.152450938580e-16       1.195423019924e-11      -1.058271153327e-11      -8.193529180942e-15 
   86       4.863214909152e-10       8.622184177471e-14      -1.630466647691e-12       2.203470703403e-16       1.159788855539e-11      -1.035248929231e-11      -8.154158402528e-15 
   87       4.878608667380e-10       8.860747872995e-14      -1.736036252226e-12       2.255101336117e-16       1.125538202285e-11      -1.012922511157e-11      -8.105801322946e-15 
   88       4.895695282964e-10       9.100001576218e-14      -1.842728852580e-12       2.307345439311e-16       1.092532379206e-11      -9.912509680285e-12      -8.049510374399e-15 
   89       4.914341392450e-10       9.339749336630e-14      -1.950483919162e-12       2.360205745447e-16       1.060639503005e-11      -9.701923846105e-12      -7.986396205783e-15 
   90       4.934531848940e-10       9.579791529432e-14      -2.059225305530e-12       2.413684937622e-16       1.029840617219e-11      -9.497403862505e-12      -7.917451564728e-15 
   91       4.956273184588e-10       9.819924106474e-14      -2.168872226124e-12       2.467785809913e-16       1.000138571747e-11      -9.298925035191e-12      -7.843705626763e-15 
   92       4.979559014411e-10       1.005993833854e-13      -2.279343202253e-12       2.522511326983e-16       9.715254139806e-12      -9.106387556761e-12      -7.766280301548e-15 
   93       5.004369507830e-10       1.029962082788e-13      -2.390556140599e-12       2.577864628289e-16       9.439819613042e-12      -8.919613544895e-12      -7.686392626502e-15 
   94       5.030670860215e-10       1.053875352072e-13      -2.502428411727e-12       2.633849032289e-16       9.174773735944e-12      -8.738344080536e-12      -7.605357160424e-15 
   95       5.058414764416e-10       1.077711371978e-13      -2.614876928600e-12       2.690468040648e-16       8.919687257222e-12      -8.562236246077e-12      -7.524588377123e-15 
   96       5.087537882312e-10       1.101447409682e-13      -2.727818225082e-12       2.747725342444e-16       8.674005800535e-12      -8.390860163549e-12      -7.445603059043e-15 
   97       5.117961316347e-10       1.125060270515e-13      -2.841168534450e-12       2.805624818378e-16       8.437045589503e-12      -8.223696032801e-12      -7.370022690885e-15 
   98       5.149590081071e-10       1.148526299214e-13      -2.954843867907e-12       2.864170544975e-16       8.207989172714e-12      -8.060131169693e-12      -7.299575853233e-15 
   99       5.182334527443e-10       1.171821978403e-13      -3.068759617609e-12       2.923366833805e-16       7.986070959708e-12      -7.899614089720e-12      -7.235662406322e-15 
  100       5.216179220597e-10       1.194925818051e-13      -3.182829131901e-12       2.983218346358e-16       7.771173055413e-12      -7.742148063613e-12      -7.177970432278e-15 
  101       5.251122881683e-10       1.217816737211e-13      -3.296965083186e-12       3.043730003334e-16       7.563306271491e-12      -7.587862292696e-12      -7.125666929950e-15 
  102       5.287157046417e-10       1.240473499050e-13      -3.411079997226e-12       3.104906955648e-16       7.362425895208e-12      -7.436860055303e-12      -7.077815666900e-15 
  103       5.324265802709e-10       1.262874719344e-13      -3.525086325888e-12       3.166754589072e-16       7.168429715179e-12      -7.289217648544e-12      -7.033374261388e-15 
  104       5.362425528306e-10       1.284998874967e-13      -3.638896519889e-12       3.229278528858e-16       6.981156047124e-12      -7.144983330070e-12      -6.991191264364e-15 
  105       5.401604628417e-10       1.306824312383e-13      -3.752423101543e-12       3.292484644373e-16       6.800381759608e-12      -7.004176259841e-12      -6.950003241461e-15 
  106       5.441763273355e-10       1.328329256138e-13      -3.865578737509e-12       3.356379053728e-16       6.625820299796e-12      -6.866785441892e-12      -6.908431854984e-15 
  107       5.482853136165e-10       1.349491817351e-13      -3.978276311535e-12       3.420968128411e-16       6.457119719199e-12      -6.732768666102e-12      -6.864980945900e-15 
