# dimensionless total lensed [l(l+1)/2pi] C_l's
# for l=2 to 2500, i.e. number of multipoles equal to 2499
#
# -> if you prefer output in CAMB/HealPix/LensPix units/order, set 'format' to 'camb' in input file
# -> if you don't want to see such a header, set 'headers' to 'no' in input file
# -> for CMB lensing (phi), these are C_l^phi-phi for the lensing potential.
#    Remember the conversion factors:
#    C_l^dd (deflection) = l(l+1) C_l^phi-phi
#    C_l^gg (shear/convergence) = 1/4 (l(l+1))^2 C_l^phi-phi
#
# 1:l     2:TT                     3:EE                     4:TE                     5:BB                     6:phiphi                 7:TPhi                   8:Ephi               
    2       1.125105052473e-09       4.504972677541e-15       1.985365273718e-12       2.058146816531e-19       7.881197433114e-09      -2.055989377759e-10      -1.844930078992e-12 
    3       1.024869068951e-09       5.750815697451e-15       2.123880762381e-12       4.117179620043e-19       4.829171491049e-09      -9.616108857501e-11      -1.384696751089e-12 
    4       9.308819826318e-10       4.931562544075e-15       1.912125771739e-12       6.863918767129e-19       3.339614355525e-09      -5.715822795003e-11      -8.895397985649e-13 
    5       8.489348813339e-10       3.260611187839e-15       1.540193025611e-12       1.029950110146e-18       2.482051922854e-09      -4.058356608237e-11      -4.739804388406e-13 
    6       7.784212386883e-10       1.833968040178e-15       1.130576943770e-12       1.442531034226e-18       1.931822506554e-09      -3.239015035378e-11      -1.695256020731e-13 
    7       7.175523347723e-10       1.049367318680e-15       7.606611216099e-13       1.924295367860e-18       1.553621802896e-09      -2.791051164722e-11       2.248008269023e-14 
    8       6.646366330297e-10       7.556486347651e-16       4.699270813198e-13       2.475423510530e-18       1.280521653612e-09      -2.518204494224e-11       1.176198262346e-13 
    9       6.182449662610e-10       6.558111294482e-16       2.706270257686e-13       3.096112620023e-18       1.075728291405e-09      -2.328303663711e-11       1.401599790344e-13 
   10       5.772909999145e-10       5.686709955236e-16       1.568459436801e-13       3.786573509989e-18       9.175448196545e-10      -2.182156695002e-11       1.169726500756e-13 
   11       5.409648830448e-10       4.643570988679e-16       1.122129155507e-13       4.547027446316e-18       7.850637590379e-10      -1.981268683517e-11       7.335009563470e-14 
   12       5.084998214329e-10       3.792934420109e-16       1.162471366602e-13       5.377702922193e-18       6.856142679269e-10      -1.943733747742e-11       2.708801254944e-14 
   13       4.794069625758e-10       3.383506282294e-16       1.492056719021e-13       6.278832490113e-18       6.039954517304e-10      -1.859591665289e-11      -8.975635819254e-15 
   14       4.532513369145e-10       3.359507179022e-16       1.949417962302e-13       7.250649725110e-18       5.361104587320e-10      -1.828612076733e-11      -3.034260658719e-14 
   15       4.296782420224e-10       3.556949887774e-16       2.421568660837e-13       8.293386387294e-18       4.789894128912e-10      -1.769947693380e-11      -3.701849227863e-14 
   16       4.083104612207e-10       3.896719783069e-16       2.843973541443e-13       9.407269843588e-18       4.304377754146e-10      -1.718566193363e-11      -3.296271739807e-14 
   17       3.889473031611e-10       4.407043032008e-16       3.191788741156e-13       1.059252079865e-17       3.888012046992e-10      -1.668056630877e-11      -2.350402995384e-14 
   18       3.712902759717e-10       5.141670048827e-16       3.470378504418e-13       1.184935124573e-17       3.526778512496e-10      -1.616274031760e-11      -1.376884303949e-14 
   19       3.553235451385e-10       6.112147135563e-16       3.696041586643e-13       1.317796356017e-17       3.214797603152e-10      -1.566787114216e-11      -6.592949921568e-15 
   20       3.407037098371e-10       7.306657490149e-16       3.892890327297e-13       1.457854792360e-17       2.940130578841e-10      -1.520241790604e-11      -3.979628663493e-15 
   21       3.273897307777e-10       8.716736465639e-16       4.075500148800e-13       1.605128352225e-17       2.698426653889e-10      -1.477293344505e-11      -5.524203417158e-15 
   22       3.152072586556e-10       1.032956339650e-15       4.255872684366e-13       1.759633586742e-17       2.483840250385e-10      -1.437549352905e-11      -9.599550041049e-15 
   23       3.041116145990e-10       1.213628278401e-15       4.435215142292e-13       1.921385963549e-17       2.293482235658e-10      -1.399681438620e-11      -1.445553569433e-14 
   24       2.939456129467e-10       1.412728073279e-15       4.610361625110e-13       2.090399552741e-17       2.122990407056e-10      -1.361639926396e-11      -1.818113213562e-14 
   25       2.846499494101e-10       1.630074014659e-15       4.776172824681e-13       2.266687366869e-17       1.970033749093e-10      -1.323599458590e-11      -1.990651205908e-14 
   26       2.761058826024e-10       1.866003926352e-15       4.926909393951e-13       2.450261148557e-17       1.831598859186e-10      -1.286190002922e-11      -1.924677079361e-14 
   27       2.683324307044e-10       2.122619910289e-15       5.061038491873e-13       2.641132140270e-17       1.706958371471e-10      -1.250093375293e-11      -1.671737632030e-14 
   28       2.612849646802e-10       2.402977480184e-15       5.178513442727e-13       2.839310375847e-17       1.594594456658e-10      -1.215715484178e-11      -1.335206303925e-14 
   29       2.548271635797e-10       2.710236359036e-15       5.279768972449e-13       3.044804705158e-17       1.491769425572e-10      -1.183033374325e-11      -1.031407943563e-14 
   30       2.489557684413e-10       3.045805918069e-15       5.366221391161e-13       3.257624058563e-17       1.397909806953e-10      -1.151613684014e-11      -8.054278770018e-15 
   31       2.436441925608e-10       3.410462391623e-15       5.440028264806e-13       3.477776580293e-17       1.312312267062e-10      -1.120500681206e-11      -6.832491612176e-15 
   32       2.388107061915e-10       3.804886129862e-15       5.503254249932e-13       3.705269554450e-17       1.233614679357e-10      -1.088649217625e-11      -6.810259402430e-15 
   33       2.344438868629e-10       4.229951012673e-15       5.555252803867e-13       3.940110450526e-17       1.161383286250e-10      -1.056667223057e-11      -7.623410429165e-15 
   34       2.305111116492e-10       4.686524184990e-15       5.594285390107e-13       4.182306220296e-17       1.094973352718e-10      -1.025684260846e-11      -8.636227370689e-15 
   35       2.269493096246e-10       5.175420179671e-15       5.618410299257e-13       4.431863238283e-17       1.033390707699e-10      -9.966927931480e-12      -9.204997313783e-15 
   36       2.237671321205e-10       5.697529664650e-15       5.626348450613e-13       4.688788092522e-17       9.764726935062e-11      -9.698494065648e-12      -9.249580089885e-15 
   37       2.209708716522e-10       6.253725975867e-15       5.616871985528e-13       4.953087063786e-17       9.240387351829e-11      -9.449050623630e-12      -8.875124916314e-15 
   38       2.185331356222e-10       6.844825554594e-15       5.588551199675e-13       5.224765922972e-17       8.755334363194e-11      -9.213614696508e-12      -8.224200595397e-15 
   39       2.164075752103e-10       7.471575156418e-15       5.540212617955e-13       5.503829978451e-17       8.302262483955e-11      -8.986170336698e-12      -7.460894937633e-15 
   40       2.145872402470e-10       8.134618636919e-15       5.472546386080e-13       5.790284224549e-17       7.879764344184e-11      -8.765192903700e-12      -6.709876628686e-15 
   41       2.130605290526e-10       8.834511677815e-15       5.387015824671e-13       6.084133252652e-17       7.486710944090e-11      -8.549631793013e-12      -6.101175572644e-15 
   42       2.117928961714e-10       9.571724454650e-15       5.285445569263e-13       6.385381222022e-17       7.119969550733e-11      -8.337293163840e-12      -5.788371912215e-15 
   43       2.107417890909e-10       1.034672072632e-14       5.169429964239e-13       6.694031634541e-17       6.775557291414e-11      -8.125841700319e-12      -5.900476405007e-15 
   44       2.099117104630e-10       1.116023631999e-14       5.038295625377e-13       7.010086554652e-17       6.452930314458e-11      -7.916409384293e-12      -6.376469353018e-15 
   45       2.093129898501e-10       1.201307912036e-14       4.890533611131e-13       7.333547160667e-17       6.151748426648e-11      -7.710948137432e-12      -7.081427629677e-15 
   46       2.089454819184e-10       1.290605292582e-14       4.724333425918e-13       7.664413951438e-17       5.870587583127e-11      -7.511201970532e-12      -7.849757777818e-15 
   47       2.087976603800e-10       1.383995781056e-14       4.537562272609e-13       8.002686740146e-17       5.606855462647e-11      -7.318679416647e-12      -8.483406386777e-15 
   48       2.088520616145e-10       1.481546097948e-14       4.328296867568e-13       8.348364355301e-17       5.357586927412e-11      -7.134493055383e-12      -8.805598871250e-15 
   49       2.091055442153e-10       1.583266543975e-14       4.096644568310e-13       8.701443658575e-17       5.122292546942e-11      -6.958888916530e-12      -8.844144520947e-15 
   50       2.095531836511e-10       1.689142036523e-14       3.843399952875e-13       9.061920239442e-17       4.900767987014e-11      -6.791537058111e-12      -8.696728126854e-15 
   51       2.101818534304e-10       1.799143389632e-14       3.569544339006e-13       9.429788663176e-17       4.692245671504e-11      -6.631619390622e-12      -8.480910751004e-15 
   52       2.109696430067e-10       1.913226689454e-14       3.276253228606e-13       9.805042449703e-17       4.495355249713e-11      -6.477795329105e-12      -8.335173185292e-15 
   53       2.118931544084e-10       2.031351295384e-14       2.964554081905e-13       1.018767420192e-16       4.308552285856e-11      -6.328597567128e-12      -8.384379983635e-15 
   54       2.129529348051e-10       2.153540715364e-14       2.634179190219e-13       1.057767607809e-16       4.131624742969e-11      -6.183817942711e-12      -8.623343681823e-15 
   55       2.141535692345e-10       2.279836295741e-14       2.284430802234e-13       1.097503940403e-16       3.964504980770e-11      -6.043418074392e-12      -9.005138548136e-15 
   56       2.154961282302e-10       2.410280118676e-14       1.914497920367e-13       1.137975451981e-16       3.806815988690e-11      -5.907114486169e-12      -9.473621019201e-15 
   57       2.169779160706e-10       2.544915158556e-14       1.523449083991e-13       1.179181076481e-16       3.657851485160e-11      -5.774362294030e-12      -9.962981358943e-15 
   58       2.185922190287e-10       2.683785438401e-14       1.110225152664e-13       1.221119646286e-16       3.516556016879e-11      -5.644338892492e-12      -1.039729531754e-14 
   59       2.203308980441e-10       2.826916326384e-14       6.739457996570e-14       1.263789977767e-16       3.381814528423e-11      -5.516247613924e-12      -1.070780585407e-14 
   60       2.221934416100e-10       2.974249726839e-14       2.149285000831e-14       1.307191154482e-16       3.253444796637e-11      -5.390348105721e-12      -1.089047313937e-14 
   61       2.241795740393e-10       3.125694088359e-14      -2.661061519189e-14       1.351322307228e-16       3.131400706957e-11      -5.267136830913e-12      -1.096102075005e-14 
   62       2.262864437333e-10       3.281142434112e-14      -7.683239992340e-14       1.396182534232e-16       3.015473829400e-11      -5.147042779194e-12      -1.093853027014e-14 
   63       2.285084678522e-10       3.440471845033e-14      -1.290773904298e-13       1.441770902608e-16       2.905284008360e-11      -5.030421999989e-12      -1.084559396914e-14 
   64       2.308371769857e-10       3.603542943018e-14      -1.832384331623e-13       1.488086449827e-16       2.800269952409e-11      -4.917552135530e-12      -1.070846748011e-14 
   65       2.332637579801e-10       3.770219549967e-14      -2.392180788633e-13       1.535128313900e-16       2.699843507752e-11      -4.808608703377e-12      -1.055210427235e-14 
   66       2.357876572395e-10       3.940433664889e-14      -2.969999348240e-13       1.582896152730e-16       2.603911590353e-11      -4.703600385429e-12      -1.038369384764e-14 
   67       2.384095271725e-10       4.114133364644e-14      -3.565918575436e-13       1.631389816450e-16       2.512448295004e-11      -4.602410221118e-12      -1.020589984385e-14 
   68       2.411286104464e-10       4.291263889023e-14      -4.180054711765e-13       1.680609231497e-16       2.425336223938e-11      -4.504806782931e-12      -1.002167994367e-14 
   69       2.439426601302e-10       4.471767688294e-14      -4.812564435695e-13       1.730554405679e-16       2.342361655197e-11      -4.410438198979e-12      -9.834295386082e-15 
   70       2.468478598386e-10       4.655584470763e-14      -5.463647623007e-13       1.781225433234e-16       2.263209710989e-11      -4.318826175558e-12      -9.647320477793e-15 
   71       2.498387438749e-10       4.842651250322e-14      -6.133550107169e-13       1.832622499897e-16       2.187459526053e-11      -4.229360019721e-12      -9.464652104763e-15 
   72       2.529097858382e-10       5.032893234789e-14      -6.822427298329e-13       1.884745955574e-16       2.114692128433e-11      -4.141459402617e-12      -9.289940738616e-15 
   73       2.560606949266e-10       5.226194360437e-14      -7.529898599183e-13       1.937596537279e-16       2.044848792287e-11      -4.055112102355e-12      -9.124735876287e-15 
   74       2.592919966793e-10       5.422421161167e-14      -8.255412049476e-13       1.991175198341e-16       1.977933059617e-11      -3.970429159274e-12      -8.970000148932e-15 
   75       2.626034135368e-10       5.621431267782e-14      -8.998375479799e-13       2.045483051074e-16       1.913901902692e-11      -3.887483192128e-12      -8.826652651796e-15 
   76       2.659938230774e-10       5.823073246417e-14      -9.758156095220e-13       2.100521373383e-16       1.852663465753e-11      -3.806306273176e-12      -8.695565247823e-15 
   77       2.694612162534e-10       6.027186436983e-14      -1.053408005893e-12       2.156291615375e-16       1.794074806717e-11      -3.726887803280e-12      -8.577558871256e-15 
   78       2.730026556269e-10       6.233600791603e-14      -1.132543207586e-12       2.212795405961e-16       1.737939638884e-11      -3.649172386997e-12      -8.473399831237e-15 
   79       2.766142336067e-10       6.442136713053e-14      -1.213145497636e-12       2.270034559468e-16       1.684006072640e-11      -3.573057707676e-12      -8.383796115411e-15 
   80       2.802921092603e-10       6.652613124516e-14      -1.295141070081e-12       2.328011015523e-16       1.632028967891e-11      -3.498443489729e-12      -8.309046715470e-15 
   81       2.840359179955e-10       6.864873648244e-14      -1.378477636659e-12       2.386726632180e-16       1.581974430110e-11      -3.425392852674e-12      -8.247927600952e-15 
   82       2.878458805562e-10       7.078764699592e-14      -1.463108165067e-12       2.446183368757e-16       1.533846872024e-11      -3.353995230951e-12      -8.198604623227e-15 
   83       2.917217555870e-10       7.294127650520e-14      -1.548985112244e-12       2.506383354658e-16       1.487626511796e-11      -3.284316614961e-12      -8.158953344014e-15 
   84       2.956628178422e-10       7.510798820457e-14      -1.636060496443e-12       2.567328894736e-16       1.443268311226e-11      -3.216398372216e-12      -8.126548913459e-15 
   85       2.996678363962e-10       7.728609467178e-14      -1.724285969297e-12       2.629022474673e-16       1.400700913953e-11      -3.150256068492e-12      -8.098655948225e-15 
   86       3.037350528531e-10       7.947385777672e-14      -1.813612887895e-12       2.691466766343e-16       1.359825583649e-11      -3.085878288990e-12      -8.072218409569e-15 
   87       3.078621595567e-10       8.166948859010e-14      -1.903992386843e-12       2.754664633189e-16       1.320515142224e-11      -3.023225459480e-12      -8.043849481426e-15 
   88       3.120462778003e-10       8.387114729220e-14      -1.995375450339e-12       2.818619135595e-16       1.282612908022e-11      -2.962228667463e-12      -8.009821448492e-15 
   89       3.162846100065e-10       8.607696006576e-14      -2.087710270787e-12       2.883333480029e-16       1.245969888096e-11      -2.902812577018e-12      -7.966928749070e-15 
   90       3.205765610115e-10       8.828507301075e-14      -2.180933692685e-12       2.948810845641e-16       1.210565355748e-11      -2.844970862498e-12      -7.915254352672e-15 
   91       3.249219109428e-10       9.049360655822e-14      -2.274978553101e-12       3.015054540235e-16       1.176403319404e-11      -2.788700491063e-12      -7.855820707056e-15 
   92       3.293201593423e-10       9.270063939982e-14      -2.369776306620e-12       3.082068058539e-16       1.143475470466e-11      -2.733977875908e-12      -7.789758112567e-15 
   93       3.337705134729e-10       9.490420865101e-14      -2.465257056767e-12       3.149855086733e-16       1.111760694606e-11      -2.680758058364e-12      -7.718307681481e-15 
   94       3.382718766250e-10       9.710231001416e-14      -2.561349587423e-12       3.218419506975e-16       1.081224583062e-11      -2.628973890016e-12      -7.642824297366e-15 
   95       3.428228364239e-10       9.929289794173e-14      -2.657981394245e-12       3.287765401937e-16       1.051818943932e-11      -2.578535214804e-12      -7.564779574429e-15 
   96       3.474216531358e-10       1.014738857994e-13      -2.755078716080e-12       3.357897059328e-16       1.023481313467e-11      -2.529328051133e-12      -7.485764816872e-15 
   97       3.520662479755e-10       1.036431460292e-13      -2.852566566390e-12       3.428818976425e-16       9.961344673683e-12      -2.481213773981e-12      -7.407493978240e-15 
   98       3.567541914125e-10       1.057985103127e-13      -2.950368764665e-12       3.500535864604e-16       9.696859320782e-12      -2.434028297011e-12      -7.331806620779e-15 
   99       3.614831611173e-10       1.079378214563e-13      -3.048408767402e-12       3.573052669910e-16       9.440491008815e-12      -2.387624247205e-12      -7.260268053795e-15 
  100       3.662524150879e-10       1.100590970798e-13      -3.146612227429e-12       3.646374628325e-16       9.192110512933e-12      -2.342006072871e-12      -7.192898727659e-15 
  101       3.710615064268e-10       1.121603895238e-13      -3.244904857135e-12       3.720507226775e-16       8.951734702377e-12      -2.297212642155e-12      -7.129269529751e-15 
  102       3.759098263926e-10       1.142397369760e-13      -3.343211701848e-12       3.795456192456e-16       8.719316822432e-12      -2.253275664750e-12      -7.068886650663e-15 
  103       3.807965983987e-10       1.162951642617e-13      -3.441457180943e-12       3.871227497551e-16       8.494744226132e-12      -2.210219395130e-12      -7.011189660875e-15 
  104       3.857208720130e-10       1.183246836334e-13      -3.539565128951e-12       3.947827363958e-16       8.277836105972e-12      -2.168060335779e-12      -6.955549587422e-15 
  105       3.906815169572e-10       1.203262955610e-13      -3.637458836670e-12       4.025262268010e-16       8.068341225614e-12      -2.126806940417e-12      -6.901266990576e-15 
  106       3.956772171062e-10       1.222979895222e-13      -3.735061092273e-12       4.103538945203e-16       7.865935651598e-12      -2.086459317234e-12      -6.847570040513e-15 
  107       4.007064644877e-10       1.242377447922e-13      -3.832294222422e-12       4.182664394915e-16       7.670220485049e-12      -2.047008932119e-12      -6.793612593993e-15 
