# Matter power spectrum P(k) at redshift z=0
# for k=1.04206e-05 to 5.30492 h/Mpc,
# number of wavenumbers equal to 556
#    1:k (h/Mpc)              2:P (Mpc/h)^3        
       1.042057218102e-05       4.721288065192e+01 
       2.326965112342e-05       1.025902336605e+02 
       3.616368416807e-05       1.570646258276e+02 
       4.913719191669e-05       2.111944807648e+02 
       6.222526306398e-05       2.653034703427e+02 
       7.546386573317e-05       3.196316907960e+02 
       8.889016871848e-05       3.743928911074e+02 
       1.025428768879e-04       4.297761392392e+02 
       1.164625850317e-04       4.859736475926e+02 
       1.306921544768e-04       5.431710915390e+02 
       1.452771167918e-04       6.015590598410e+02 
       1.602661088541e-04       6.613410414407e+02 
       1.757113433752e-04       7.227202171169e+02 
       1.916691186266e-04       7.859160941782e+02 
       2.082003704669e-04       8.511638965748e+02 
       2.253712687328e-04       9.187153716751e+02 
       2.432538584349e-04       9.888385695525e+02 
       2.619267438096e-04       1.061824579675e+03 
       2.814758098253e-04       1.137990307561e+03 
       3.019949709326e-04       1.217676700715e+03 
       3.235869302973e-04       1.301254350789e+03 
       3.463639240714e-04       1.389122073691e+03 
       3.704484140771e-04       1.481713998286e+03 
       3.959736783330e-04       1.579495393855e+03 
       4.230842321551e-04       1.682966800224e+03 
       4.519359935994e-04       1.792659514994e+03 
       4.826960870599e-04       1.909140206653e+03 
       5.155421603068e-04       2.032993409358e+03 
       5.506610770795e-04       2.164826850916e+03 
       5.882468451648e-04       2.305253721318e+03 
       6.284976558480e-04       2.454888588989e+03 
       6.716119524910e-04       2.614318519333e+03 
       7.177835202431e-04       2.784091908302e+03 
       7.671956976726e-04       2.964687615225e+03 
       8.200149485734e-04       3.156512043385e+03 
       8.763841814427e-04       3.359835261215e+03 
       9.364163367208e-04       3.574812380535e+03 
       1.000188842063e-03       3.801431220922e+03 
       1.067739530145e-03       4.039527532753e+03 
       1.139064503247e-03       4.288767355330e+03 
       1.214118221432e-03       4.548656224553e+03 
       1.292815822649e-03       4.818554570387e+03 
       1.375037409677e-03       5.097681362395e+03 
       1.460633819123e-03       5.385179934795e+03 
       1.549433263665e-03       5.680154457807e+03 
       1.641248223778e-03       5.981647491798e+03 
       1.735882044008e-03       6.288701935606e+03 
       1.833134827638e-03       6.600366187761e+03 
       1.932808383275e-03       6.915725381671e+03 
       2.034710125338e-03       7.233914179750e+03 
       2.138655947732e-03       7.554119467676e+03 
       2.244472169001e-03       7.875593989193e+03 
       2.351996690227e-03       8.197652789312e+03 
       2.461079521249e-03       8.519677483516e+03 
       2.571582825440e-03       8.841109692755e+03 
       2.683380616479e-03       9.161453115201e+03 
       2.796358218588e-03       9.480266825617e+03 
       2.910411578978e-03       9.797158733148e+03 
       3.025446500195e-03       1.011178769423e+04 
       3.141377842005e-03       1.042385108195e+04 
       3.258128727724e-03       1.073308796423e+04 
       3.375629778368e-03       1.103927008049e+04 
       3.493818389279e-03       1.134219922579e+04 
       3.612638057479e-03       1.164170571613e+04 
       3.732037763470e-03       1.193764444961e+04 
       3.851971408043e-03       1.222989005762e+04 
       3.972397302633e-03       1.251833993772e+04 
       4.093277710446e-03       1.280290559353e+04 
       4.214578434858e-03       1.308351595390e+04 
       4.336268451247e-03       1.336011164746e+04 
       4.458319578333e-03       1.363264638936e+04 
       4.580706185188e-03       1.390108487102e+04 
       4.703404930262e-03       1.416539428254e+04 
       4.826394529030e-03       1.442551203125e+04 
       4.949655547142e-03       1.468153585397e+04 
       5.073170216248e-03       1.493338670151e+04 
       5.196922269937e-03       1.518103834195e+04 
       5.320896797515e-03       1.542463180462e+04 
       5.445080113588e-03       1.566410048425e+04 
       5.569459641634e-03       1.589937632464e+04 
       5.694023809978e-03       1.613056102896e+04 
       5.818761958739e-03       1.635768624267e+04 
       5.943664256511e-03       1.657998135224e+04 
       6.068721625672e-03       1.679883468998e+04 
       6.193925675349e-03       1.701358364360e+04 
       6.319268641182e-03       1.722514786451e+04 
       6.444743331135e-03       1.743248009915e+04 
       6.570343076681e-03       1.763533877229e+04 
       6.696061688782e-03       1.783437106843e+04 
       6.821893418135e-03       1.802951937993e+04 
       6.947832919238e-03       1.822126375115e+04 
       7.073875217858e-03       1.840888801798e+04 
       7.200015681550e-03       1.859323534115e+04 
       7.326249992911e-03       1.877310453437e+04 
       7.452574125278e-03       1.894905790253e+04 
       7.578984320627e-03       1.912277677703e+04 
       7.705477069457e-03       1.929159587756e+04 
       7.832049092443e-03       1.945737902640e+04 
       7.958697323705e-03       1.961927819779e+04 
       8.085418895512e-03       1.977827334624e+04 
       8.212211124305e-03       1.993388611294e+04 
       8.339071497896e-03       2.008439740556e+04 
       8.465997663740e-03       2.023380712710e+04 
       8.592987418178e-03       2.037879626799e+04 
       8.720038696556e-03       2.052028071970e+04 
       8.847149564156e-03       2.065881772885e+04 
       8.974318207839e-03       2.079364784513e+04 
       9.101542928364e-03       2.092594617298e+04 
       9.228822133307e-03       2.105473977248e+04 
       9.356154330527e-03       2.117991080419e+04 
       9.483538122139e-03       2.130261346695e+04 
       9.610972198953e-03       2.142212414716e+04 
       9.738455335323e-03       2.153874058920e+04 
       9.865986384394e-03       2.165252306969e+04 
       9.993564273694e-03       2.176269025800e+04 
       1.012118800106e-02       2.187027405317e+04 
       1.024885663085e-02       2.197472959403e+04 
       1.037656929045e-02       2.207706606632e+04 
       1.050432516701e-02       2.217520734295e+04 
       1.063212350445e-02       2.227165962876e+04 
       1.075996360063e-02       2.236462713334e+04 
       1.088784480475e-02       2.245585166770e+04 
       1.101576651498e-02       2.254368924812e+04 
       1.114372817613e-02       2.262901092863e+04 
       1.127172927762e-02       2.271186240303e+04 
       1.139976935154e-02       2.279103591424e+04 
       1.152784797079e-02       2.286846827036e+04 
       1.165596474745e-02       2.294423235447e+04 
       1.178411933118e-02       2.301676713478e+04 
       1.191231140780e-02       2.308584353199e+04 
       1.204054069789e-02       2.315276069300e+04 
       1.216880695557e-02       2.321901681806e+04 
       1.229710996733e-02       2.328047664388e+04 
       1.242544955090e-02       2.334142980339e+04 
       1.255382555428e-02       2.339945175209e+04 
       1.268223785481e-02       2.345484330584e+04 
       1.281068635825e-02       2.350883223823e+04 
       1.293917099803e-02       2.356025821624e+04 
       1.306769173445e-02       2.360830529627e+04 
       1.319624855405e-02       2.365569766282e+04 
       1.332484146892e-02       2.369932214724e+04 
       1.345347051615e-02       2.374057522768e+04 
       1.358213575726e-02       2.378154445106e+04 
       1.371083727772e-02       2.381920922760e+04 
       1.383957518651e-02       2.385574956946e+04 
       1.396834961569e-02       2.388993536261e+04 
       1.409716072003e-02       2.392105756300e+04 
       1.422600867665e-02       2.395182192251e+04 
       1.435489368476e-02       2.397851301176e+04 
       1.448381596533e-02       2.400571956982e+04 
       1.461277576092e-02       2.402934905796e+04 
       1.474177333540e-02       2.405315357738e+04 
       1.487080897380e-02       2.407215033350e+04 
       1.499988298214e-02       2.409079205919e+04 
       1.512899568732e-02       2.410809808205e+04 
       1.525814743700e-02       2.412266564851e+04 
       1.538733859953e-02       2.413592077555e+04 
       1.551656956385e-02       2.414740739056e+04 
       1.564584073954e-02       2.415685771262e+04 
       1.577515255670e-02       2.416461829687e+04 
       1.590450546606e-02       2.417066468438e+04 
       1.603389993894e-02       2.417573389743e+04 
       1.616333646732e-02       2.417869677041e+04 
       1.629281556390e-02       2.417945784894e+04 
       1.642233776221e-02       2.417981186066e+04 
       1.655190361669e-02       2.417869993559e+04 
       1.668151370282e-02       2.417467577004e+04 
       1.681116861728e-02       2.416971920454e+04 
       1.694086897806e-02       2.416365806396e+04 
       1.707061542472e-02       2.415510787031e+04 
       1.720040861847e-02       2.414631253284e+04 
       1.733024924251e-02       2.413547453030e+04 
       1.746013800215e-02       2.412374581501e+04 
       1.759007562510e-02       2.410981944985e+04 
       1.772006286174e-02       2.409463568774e+04 
       1.785010048539e-02       2.407855639949e+04 
       1.798018929257e-02       2.406124643142e+04 
       1.811033010338e-02       2.404224399780e+04 
       1.824052376175e-02       2.402159909653e+04 
       1.837077113585e-02       2.400038745794e+04 
       1.850107311840e-02       2.397701790532e+04 
       1.863143062710e-02       2.395301699669e+04 
       1.876184460497e-02       2.392836325755e+04 
       1.889231602079e-02       2.390125886556e+04 
       1.902284586954e-02       2.387334586984e+04 
       1.915343517282e-02       2.384510248701e+04 
       1.928408497933e-02       2.381495611840e+04 
       1.941479636536e-02       2.378381072160e+04 
       1.954557043527e-02       2.375158048111e+04 
       1.967640832202e-02       2.371799111695e+04 
       1.980731118771e-02       2.368335790361e+04 
       1.993828022414e-02       2.364805815375e+04 
       2.006931665338e-02       2.361259330534e+04 
       2.020042172836e-02       2.357453517145e+04 
       2.033159673351e-02       2.353643104652e+04 
       2.046284298537e-02       2.349599304201e+04 
       2.059416183327e-02       2.345641809004e+04 
       2.072555466002e-02       2.341445679947e+04 
       2.085702288256e-02       2.337208254152e+04 
       2.098856795276e-02       2.332908925068e+04 
       2.112019135811e-02       2.328491176855e+04 
       2.125189462254e-02       2.324008975591e+04 
       2.138367930717e-02       2.319426141902e+04 
       2.151554701117e-02       2.314745820728e+04 
       2.164749937262e-02       2.309987893416e+04 
       2.177953806933e-02       2.305148451601e+04 
       2.191166481979e-02       2.300299380603e+04 
       2.204388138412e-02       2.295291585991e+04 
       2.217618956496e-02       2.290183789479e+04 
       2.230859120855e-02       2.285085195815e+04 
       2.244108820567e-02       2.279805213659e+04 
       2.257368249275e-02       2.274524455786e+04 
       2.270637605295e-02       2.269161661220e+04 
       2.283917091726e-02       2.263731195814e+04 
       2.297206916568e-02       2.258213538988e+04 
       2.310507292839e-02       2.252669210552e+04 
       2.323818438700e-02       2.247028633761e+04 
       2.337140577581e-02       2.241329764277e+04 
       2.350473938315e-02       2.235572723349e+04 
       2.363818755266e-02       2.229753424155e+04 
       2.377175268477e-02       2.223870693021e+04 
       2.390543723807e-02       2.217951468701e+04 
       2.403924373083e-02       2.211948772786e+04 
       2.417317474253e-02       2.205923719573e+04 
       2.430723291542e-02       2.199822489288e+04 
       2.444142095618e-02       2.193627005776e+04 
       2.457574163760e-02       2.187462717262e+04 
       2.471019780028e-02       2.181202144566e+04 
       2.484479235450e-02       2.174900962941e+04 
       2.497952828202e-02       2.168552862628e+04 
       2.511440863801e-02       2.162135719882e+04 
       2.524943655303e-02       2.155695562111e+04 
       2.538461523512e-02       2.149201486390e+04 
       2.551994797184e-02       2.142674673274e+04 
       2.565543813252e-02       2.136113919545e+04 
       2.579108917051e-02       2.129470875872e+04 
       2.592690462549e-02       2.122848037888e+04 
       2.606288812592e-02       2.116140199703e+04 
       2.619904339155e-02       2.109401198107e+04 
       2.633537423597e-02       2.102653626390e+04 
       2.647188456935e-02       2.095861839994e+04 
       2.660857840116e-02       2.089037242109e+04 
       2.674545984307e-02       2.082160274267e+04 
       2.688253311194e-02       2.075263890254e+04 
       2.701980253287e-02       2.068332211271e+04 
       2.715727254244e-02       2.061383639727e+04 
       2.729494769197e-02       2.054403159550e+04 
       2.743283265099e-02       2.047414803774e+04 
       2.757093221079e-02       2.040360924539e+04 
       2.770925128811e-02       2.033303837819e+04 
       2.784779492897e-02       2.026244903993e+04 
       2.798656831264e-02       2.019108700680e+04 
       2.812557675579e-02       2.011976208133e+04 
       2.826482571672e-02       2.004855404842e+04 
       2.840432079988e-02       1.997665584534e+04 
       2.854406776042e-02       1.990461114854e+04 
       2.868407250906e-02       1.983269476374e+04 
       2.882434111702e-02       1.976011164253e+04 
       2.896487982126e-02       1.968767098599e+04 
       2.910569502983e-02       1.961491289095e+04 
       2.924679332755e-02       1.954211502062e+04 
       2.938818148178e-02       1.946911060056e+04 
       2.952986644856e-02       1.939603146633e+04 
       2.967185537893e-02       1.932272436337e+04 
       2.981415562554e-02       1.924986064539e+04 
       2.995677474950e-02       1.917587416905e+04 
       3.009972052758e-02       1.910263248435e+04 
       3.024300095968e-02       1.902895327532e+04 
       3.038662427662e-02       1.895476569226e+04 
       3.053059894830e-02       1.888098497886e+04 
       3.067493369218e-02       1.880689227007e+04 
       3.081963748218e-02       1.873273503181e+04 
       3.096471955791e-02       1.865867760098e+04 
       3.111018943440e-02       1.858446971677e+04 
       3.125605691220e-02       1.851018371519e+04 
       3.140233208800e-02       1.843588859724e+04 
       3.154902536572e-02       1.836183029205e+04 
       3.169614746808e-02       1.828738832578e+04 
       3.184370944881e-02       1.821266486775e+04 
       3.199172270533e-02       1.813825540261e+04 
       3.214019899213e-02       1.806389704450e+04 
       3.228915043476e-02       1.798919398081e+04 
       3.243858954453e-02       1.791487729793e+04 
       3.258852923389e-02       1.784007455236e+04 
       3.273898283262e-02       1.776559611897e+04 
       3.288996410486e-02       1.769119067389e+04 
       3.304148726696e-02       1.761662936532e+04 
       3.319356700626e-02       1.754202214368e+04 
       3.334621850089e-02       1.746729356151e+04 
       3.349945744058e-02       1.739275638506e+04 
       3.365330004854e-02       1.731833397790e+04 
       3.380776310462e-02       1.724365373124e+04 
       3.396286396965e-02       1.716931655509e+04 
       3.411862061110e-02       1.709474441580e+04 
       3.427505163025e-02       1.702027868156e+04 
       3.443217629083e-02       1.694591811854e+04 
       3.459001454926e-02       1.687152035019e+04 
       3.474858708671e-02       1.679733577339e+04 
       3.490791534296e-02       1.672286980854e+04 
       3.506802155224e-02       1.664903616424e+04 
       3.522892878128e-02       1.657434368400e+04 
       3.539066096952e-02       1.650012293121e+04 
       3.555324297194e-02       1.642626403647e+04 
       3.571670060433e-02       1.635199006422e+04 
       3.588106069155e-02       1.627787482407e+04 
       3.604635111876e-02       1.620397087323e+04 
       3.621260088590e-02       1.612991723123e+04 
       3.637984016575e-02       1.605610726054e+04 
       3.654810036579e-02       1.598224733789e+04 
       3.671741419408e-02       1.590838162905e+04 
       3.688781572972e-02       1.583498869506e+04 
       3.705934049795e-02       1.576105172155e+04 
       3.723202555053e-02       1.568745543649e+04 
       3.740590955172e-02       1.561383708755e+04 
       3.758103287036e-02       1.554014213810e+04 
       3.775743767855e-02       1.546669643160e+04 
       3.793516805749e-02       1.539315972934e+04 
       3.811427011127e-02       1.531978298410e+04 
       3.829479208903e-02       1.524650706040e+04 
       3.847678451653e-02       1.517313379285e+04 
       3.866030033781e-02       1.510005013054e+04 
       3.884539506797e-02       1.502662675347e+04 
       3.903212695812e-02       1.495338573129e+04 
       3.922055717360e-02       1.488024138246e+04 
       3.941074998689e-02       1.480716323829e+04 
       3.960277298649e-02       1.473434213738e+04 
       3.979669730355e-02       1.466082278697e+04 
       3.999259785801e-02       1.458785975397e+04 
       4.019055362619e-02       1.451457675681e+04 
       4.039064793222e-02       1.444167174607e+04 
       4.059296876580e-02       1.436840006431e+04 
       4.079760912922e-02       1.429534111230e+04 
       4.100466741681e-02       1.422235460838e+04 
       4.121424783056e-02       1.414911548423e+04 
       4.142646083607e-02       1.407604106817e+04 
       4.164142366350e-02       1.400278647310e+04 
       4.185926085895e-02       1.392944931324e+04 
       4.208010489239e-02       1.385611891919e+04 
       4.230409682914e-02       1.378275324171e+04 
       4.253138707286e-02       1.370933489218e+04 
       4.276213618943e-02       1.363589548568e+04 
       4.299651582211e-02       1.356218663146e+04 
       4.323470971049e-02       1.348864793990e+04 
       4.347691482711e-02       1.341479882028e+04 
       4.372334264845e-02       1.334083225345e+04 
       4.397422057936e-02       1.326644788904e+04 
       4.422979355318e-02       1.319226401357e+04 
       4.449032583397e-02       1.311776920475e+04 
       4.475610305132e-02       1.304313851964e+04 
       4.502743450429e-02       1.296815264224e+04 
       4.530465577708e-02       1.289301928187e+04 
       4.558813171754e-02       1.281781453070e+04 
       4.587825983897e-02       1.274188466033e+04 
       4.617547421776e-02       1.266593338422e+04 
       4.648024997382e-02       1.258947296065e+04 
       4.679310843848e-02       1.251270588014e+04 
       4.711462313673e-02       1.243549156496e+04 
       4.744542673780e-02       1.235769478328e+04 
       4.778621916177e-02       1.228001260413e+04 
       4.813777707257e-02       1.220130003159e+04 
       4.850096504050e-02       1.212150019200e+04 
       4.887674872438e-02       1.204142959861e+04 
       4.926621050782e-02       1.196064174513e+04 
       4.967056813129e-02       1.187925725579e+04 
       5.009119699784e-02       1.179661673534e+04 
       5.052965700368e-02       1.171323741325e+04 
       5.098772496627e-02       1.162870802913e+04 
       5.146743400414e-02       1.154283908463e+04 
       5.197112157982e-02       1.145568136282e+04 
       5.250148836704e-02       1.136689838948e+04 
       5.306167066023e-02       1.127636127093e+04 
       5.365532971716e-02       1.118397810488e+04 
       5.428676219834e-02       1.108884539439e+04 
       5.496103667465e-02       1.099169817487e+04 
       5.568416183614e-02       1.089063412082e+04 
       5.646329214238e-02       1.078596450070e+04 
       5.730697534282e-02       1.067659457813e+04 
       5.822544184871e-02       1.056164622192e+04 
       5.923092511196e-02       1.044002230972e+04 
       6.033797923594e-02       1.030910993697e+04 
       6.156371593844e-02       1.016776288132e+04 
