# dimensionless total lensed [l(l+1)/2pi] C_l's
# for l=2 to 2500, i.e. number of multipoles equal to 2499
#
# -> if you prefer output in CAMB/HealPix/LensPix units/order, set 'format' to 'camb' in input file
# -> if you don't want to see such a header, set 'headers' to 'no' in input file
# -> for CMB lensing (phi), these are C_l^phi-phi for the lensing potential.
#    Remember the conversion factors:
#    C_l^dd (deflection) = l(l+1) C_l^phi-phi
#    C_l^gg (shear/convergence) = 1/4 (l(l+1))^2 C_l^phi-phi
#
# 1:l     2:TT                     3:EE                     4:TE                     5:BB                     6:phiphi                 7:TPhi                   8:Ephi               
    2       2.930369717510e-08       6.444704487720e-15       1.322572324412e-11       1.097679464563e-19       6.183077508468e-09      -3.168764843147e-09      -1.814053026630e-12 
    3       2.622698251322e-08       8.120098201484e-15       1.406764068071e-11       2.196236454676e-19       3.752610506802e-09      -1.928963691802e-09      -1.280734560511e-12 
    4       2.374152962615e-08       6.787133873535e-15       1.243643285693e-11       3.662324905800e-19       2.576479590470e-09      -1.351396281327e-09      -7.207438590397e-13 
    5       2.167871037774e-08       4.533226104890e-15       9.624216700442e-12       5.497061832454e-19       1.903211143703e-09      -1.028400074502e-09      -2.616292804090e-13 
    6       1.993045968380e-08       3.048951776190e-15       6.516812492861e-12       7.701799108706e-19       1.473192498914e-09      -8.237445539768e-10       6.392147105205e-14 
    7       1.842485411772e-08       2.698115390194e-15       3.692477311593e-12       1.027809579118e-18       1.178775796882e-09      -6.835714356415e-10       2.571319186168e-13 
    8       1.711124844302e-08       2.918463997388e-15       1.465220554288e-12       1.322768674303e-18       9.669373164545e-10      -5.819700569049e-10       3.375722006082e-13 
    9       1.595290855899e-08       3.032568474627e-15      -5.317369624251e-14       1.655244845888e-18       8.086313631981e-10      -5.050515667564e-10       3.341413596155e-13 
   10       1.492303942528e-08       2.742150654328e-15      -8.932622655630e-13       2.025436306087e-18       6.867650473886e-10      -4.448537319219e-10       2.783728814310e-13 
   11       1.400082327466e-08       2.147358923882e-15      -1.172415392919e-12       2.433548147467e-18       5.861259333524e-10      -3.848000509962e-10       2.030901640399e-13 
   12       1.316991527074e-08       1.507284304620e-15      -1.047024879714e-12       2.879788680034e-18       5.099260988957e-10      -3.494918952239e-10       1.219156845537e-13 
   13       1.241767980284e-08       1.016930183897e-15      -6.753905037124e-13       3.364365886614e-18       4.475626180656e-10      -3.163291591541e-10       5.428876767975e-14 
   14       1.173357162312e-08       7.316231304866e-16      -1.933222276259e-13       3.887484089531e-18       3.958384413342e-10      -2.917324194838e-10       5.738423814290e-15 
   15       1.110890117549e-08       6.109553890615e-16       2.984178298857e-13       4.449340912823e-18       3.524307208792e-10      -2.658778294822e-10      -2.280424806601e-14 
   16       1.053635370493e-08       5.922396141433e-16       7.371304723572e-13       5.050124612883e-18       3.156321830184e-10      -2.476543142457e-10      -3.446952042742e-14 
   17       1.000999046367e-08       6.333190139903e-16       1.093770196741e-12       5.690011836841e-18       2.841570583476e-10      -2.305922301726e-10      -3.556158722583e-14 
   18       9.523201431789e-09       7.167522124836e-16       1.365343223864e-12       6.369165665200e-18       2.569190122818e-10      -2.141248109260e-10      -3.209246219181e-14 
   19       9.076087107552e-09       8.400921587525e-16       1.562060292963e-12       7.087735278804e-18       2.334541258425e-10      -1.994769202009e-10      -2.785502645356e-14 
   20       8.659869584981e-09       1.001575168167e-15       1.705090306589e-12       7.845853133424e-18       2.128444571495e-10      -1.868376198972e-10      -2.628890557942e-14 
   21       8.273724090317e-09       1.198619207773e-15       1.810564312770e-12       8.643637524604e-18       1.947503381573e-10      -1.759333812587e-10      -2.783034392193e-14 
   22       7.913461820168e-09       1.426210019347e-15       1.895842020640e-12       9.481189612015e-18       1.787225533081e-10      -1.661272762430e-10      -3.156267824669e-14 
   23       7.578240957018e-09       1.676162000394e-15       1.968871889583e-12       1.035859798918e-17       1.645378871285e-10      -1.571942819170e-10      -3.588552194366e-14 
   24       7.264314769423e-09       1.938769846424e-15       2.034959627850e-12       1.127593514346e-17       1.518640489383e-10      -1.489365178057e-10      -3.884019925844e-14 
   25       6.970389287270e-09       2.210400216229e-15       2.094638568658e-12       1.223326264639e-17       1.405201032050e-10      -1.413201374960e-10      -3.941794424062e-14 
   26       6.693579112016e-09       2.490635891444e-15       2.147041505296e-12       1.323062891433e-17       1.302743234750e-10      -1.342995725892e-10      -3.708020987280e-14 
   27       6.434443128923e-09       2.785474266794e-15       2.191944338604e-12       1.426807965239e-17       1.210688668876e-10      -1.278773760597e-10      -3.235736476754e-14 
   28       6.191810709443e-09       3.104789614670e-15       2.229393022713e-12       1.534564941565e-17       1.127884505667e-10      -1.219961955174e-10      -2.637304035938e-14 
   29       5.962123230657e-09       3.459340713839e-15       2.259692018797e-12       1.646336233043e-17       1.052272946685e-10      -1.165309491856e-10      -2.043320881040e-14 
   30       5.745441930228e-09       3.853683741411e-15       2.283919774507e-12       1.762124810005e-17       9.834050814791e-11      -1.114381446337e-10      -1.524284364379e-14 
   31       5.541279127376e-09       4.290521454845e-15       2.303649807114e-12       1.881933201066e-17       9.207378572263e-11      -1.066513654221e-10      -1.139992761608e-14 
   32       5.347715960996e-09       4.771997539103e-15       2.320515203583e-12       2.005763429709e-17       8.632417440050e-11      -1.020769117520e-10      -9.384164609934e-15 
   33       5.164620029319e-09       5.297979781799e-15       2.335060334087e-12       2.133618239211e-17       8.105794316512e-11      -9.773715247140e-11      -8.799131360308e-15 
   34       4.991291211041e-09       5.867045914598e-15       2.347460362231e-12       2.265500357021e-17       7.622607662476e-11      -9.367357062164e-11      -8.830934150307e-15 
   35       4.826202197002e-09       6.477536784957e-15       2.357789114315e-12       2.401412401383e-17       7.175393848419e-11      -8.990592383503e-11      -8.638247289545e-15 
   36       4.669556522816e-09       7.129904916412e-15       2.365958102816e-12       2.541357546357e-17       6.762857017761e-11      -8.642881805432e-11      -8.082351135282e-15 
   37       4.521420456681e-09       7.825127550133e-15       2.371732619208e-12       2.685339161774e-17       6.383596555620e-11      -8.320955070950e-11      -7.241132586846e-15 
   38       4.380928574556e-09       8.564074358533e-15       2.374729131413e-12       2.833360701844e-17       6.033473815274e-11      -8.018564595155e-11      -6.218070086110e-15 
   39       4.246743705644e-09       9.347501822172e-15       2.374580772027e-12       2.985425623346e-17       5.707073851657e-11      -7.728550427492e-11      -5.143338819837e-15 
   40       4.118848168370e-09       1.017605352294e-14       2.371537431088e-12       3.141536983254e-17       5.403301931353e-11      -7.450524904234e-11      -4.173097906905e-15 
   41       3.997210014356e-09       1.105024654970e-14       2.366045684022e-12       3.301697788843e-17       5.121274314565e-11      -7.185365974894e-11      -3.493045085908e-15 
   42       3.881235300284e-09       1.197046139705e-14       2.358585321205e-12       3.465911158539e-17       4.858650314700e-11      -6.933028537235e-11      -3.320898000212e-15 
   43       3.770084429598e-09       1.293713513725e-14       2.349508204377e-12       3.634179798506e-17       4.612474524026e-11      -6.692886987073e-11      -3.832794093169e-15 
   44       3.663857278373e-09       1.395143152706e-14       2.338497143380e-12       3.806504140517e-17       4.382305792952e-11      -6.465097315827e-11      -4.910830969372e-15 
   45       3.562693471462e-09       1.501476659825e-14       2.324936622521e-12       3.982883692414e-17       4.167858612048e-11      -6.249512566075e-11      -6.319821814007e-15 
   46       3.466412357897e-09       1.612863052583e-14       2.308047478957e-12       4.163317556946e-17       3.968065053126e-11      -6.045231642526e-11      -7.772941101700e-15 
   47       3.374486329957e-09       1.729459249141e-14       2.286875786735e-12       4.347804436935e-17       3.781014114459e-11      -5.850539313115e-11      -8.928743719497e-15 
   48       3.286257392515e-09       1.851392681062e-14       2.260562019539e-12       4.536341970603e-17       3.604528441927e-11      -5.663505484101e-11      -9.483155765841e-15 
   49       3.201721316375e-09       1.978635534342e-14       2.229264197077e-12       4.728924503931e-17       3.438228260677e-11      -5.484122781192e-11      -9.483065926943e-15 
   50       3.120918687318e-09       2.111095894044e-14       2.193475863889e-12       4.925544699241e-17       3.281945028801e-11      -5.312668441503e-11      -9.096010188189e-15 
   51       3.043697035939e-09       2.248651112384e-14       2.153771636184e-12       5.126194121921e-17       3.135107414501e-11      -5.149071934740e-11      -8.524736806416e-15 
   52       2.969696567439e-09       2.391146362741e-14       2.110810385814e-12       5.330863211424e-17       2.996713160484e-11      -4.992888600722e-11      -8.009070926557e-15 
   53       2.898495532591e-09       2.538449758953e-14       2.065176126098e-12       5.539541218601e-17       2.865636662220e-11      -4.843495384474e-11      -7.769370806111e-15 
   54       2.830123074599e-09       2.690637681495e-14       2.016845305677e-12       5.752216065573e-17       2.741709321500e-11      -4.700797814809e-11      -7.815534533116e-15 
   55       2.764653386216e-09       2.847854586449e-14       1.965588082296e-12       5.968874399273e-17       2.624867961742e-11      -4.564658874201e-11      -8.092130510377e-15 
   56       2.702050205631e-09       3.010261516428e-14       1.911115091300e-12       6.189501592223e-17       2.514829687668e-11      -4.434676147462e-11      -8.531935744004e-15 
   57       2.642159239817e-09       3.178037026300e-14       1.853073824662e-12       6.414081712114e-17       2.411077825761e-11      -4.310164771521e-11      -9.055351470871e-15 
   58       2.584700587876e-09       3.351378108903e-14       1.791045010003e-12       6.642597491392e-17       2.312847864708e-11      -4.190140385218e-11      -9.569818786067e-15 
   59       2.529365567269e-09       3.530432418626e-14       1.724664994638e-12       6.875031289554e-17       2.219333820888e-11      -4.073618427560e-11      -9.987675116413e-15 
   60       2.476150658472e-09       3.715074459601e-14       1.654034310534e-12       7.111368310088e-17       2.130395230214e-11      -3.960631922352e-11      -1.028589329351e-14 
   61       2.425087859384e-09       3.905078965454e-14       1.579397759358e-12       7.351594078176e-17       2.045989784382e-11      -3.851420339689e-11      -1.045920753200e-14 
   62       2.376143146062e-09       4.100183656949e-14       1.501027386974e-12       7.595693516831e-17       1.965960888779e-11      -3.746127832118e-11      -1.050293229558e-14 
   63       2.329212435156e-09       4.300087838826e-14       1.419223133819e-12       7.843650950137e-17       1.890031074977e-11      -3.644796908096e-11      -1.041300303788e-14 
   64       2.284117546329e-09       4.504450996629e-14       1.334313485284e-12       8.095450106483e-17       1.817795413213e-11      -3.547362105458e-11      -1.018601694331e-14 
   65       2.240667134197e-09       4.712961295942e-14       1.246601272677e-12       8.351075710285e-17       1.748830621919e-11      -3.453693374695e-11      -9.824446422000e-15 
   66       2.198863551800e-09       4.925561093155e-14       1.156186273963e-12       8.610518641703e-17       1.683064050630e-11      -3.363751118142e-11      -9.353471405972e-15 
   67       2.158732709142e-09       5.142266816800e-14       1.063106094535e-12       8.873771878675e-17       1.620471296373e-11      -3.277452773156e-11      -8.807795202857e-15 
   68       2.120260790695e-09       5.363103821215e-14       9.673868341199e-13       9.140829051628e-17       1.560964113393e-11      -3.194621155793e-11      -8.226968263883e-15 
   69       2.083392035153e-09       5.588106938694e-14       8.690422029070e-13       9.411684491151e-17       1.504387061917e-11      -3.114979524747e-11      -7.655573617172e-15 
   70       2.048026515184e-09       5.817321031631e-14       7.680726376768e-13       9.686333275657e-17       1.450514156920e-11      -3.038146645307e-11      -7.143412301041e-15 
   71       2.014017917188e-09       6.050801544660e-14       6.644644179306e-13       9.964771279055e-17       1.399045516890e-11      -2.963631853296e-11      -6.745688797299e-15 
   72       1.981218447286e-09       6.288572665210e-14       5.582090945947e-13       1.024699589791e-16       1.349682932671e-11      -2.890964831055e-11      -6.509523143429e-15 
   73       1.949628462270e-09       6.530491280486e-14       4.493680577813e-13       1.053300828854e-16       1.302380814246e-11      -2.820124743482e-11      -6.430077886717e-15 
   74       1.919271681704e-09       6.776357783265e-14       3.380188232169e-13       1.082281164749e-16       1.257137581239e-11      -2.751184937933e-11      -6.486305598931e-15 
   75       1.890149481706e-09       7.025955741102e-14       2.242354048414e-13       1.111641063217e-16       1.213919487795e-11      -2.684183701975e-11      -6.653751434323e-15 
   76       1.862239750652e-09       7.279051480626e-14       1.080878946943e-13       1.141381142407e-16       1.172659073171e-11      -2.619122402948e-11      -6.904426386645e-15 
   77       1.835495744866e-09       7.535393671843e-14      -1.035795719874e-14       1.171502179190e-16       1.133253612329e-11      -2.555963627537e-11      -7.206680546168e-15 
   78       1.809844944320e-09       7.794712912436e-14      -1.310411629400e-13       1.202005115481e-16       1.095563566533e-11      -2.494629321328e-11      -7.525076356701e-15 
   79       1.785187908329e-09       8.056721312065e-14      -2.539059168730e-13       1.232891064554e-16       1.059411033938e-11      -2.434998928380e-11      -7.820261872608e-15 
   80       1.761427087968e-09       8.321136999685e-14      -3.788927402687e-13       1.264161204188e-16       1.024623056448e-11      -2.376953359797e-11      -8.057168721468e-15 
   81       1.738561543283e-09       8.587763461499e-14      -5.059092200709e-13       1.295816420825e-16       9.911736103341e-12      -2.320519786148e-11      -8.231524419152e-15 
   82       1.716606663309e-09       8.856423286954e-14      -6.348549315979e-13       1.327857614854e-16       9.590635615446e-12      -2.265748712043e-11      -8.347734529432e-15 
   83       1.695565089898e-09       9.126934514640e-14      -7.656305071332e-13       1.360285812462e-16       9.282772919931e-12      -2.212669384390e-11      -8.410993903794e-15 
   84       1.675426128170e-09       9.399110678126e-14      -8.981378842729e-13       1.393102169849e-16       8.987819808224e-12      -2.161288780644e-11      -8.427314099673e-15 
   85       1.656165156963e-09       9.672760851797e-14      -1.032280554271e-12       1.426307977457e-16       8.705268856693e-12      -2.111590597055e-11      -8.403550798687e-15 
   86       1.637743039286e-09       9.947689696692e-14      -1.167963810388e-12       1.459904664188e-16       8.434426239307e-12      -2.063534236919e-11      -8.347431224867e-15 
   87       1.620105532763e-09       1.022369750634e-13      -1.305094996233e-12       1.493893801627e-16       8.174404540283e-12      -2.017053798829e-11      -8.267581562895e-15 
   88       1.603182700092e-09       1.050058025261e-13      -1.443583754117e-12       1.528277108266e-16       7.924115566738e-12      -1.972057064924e-11      -8.173554376334e-15 
   89       1.586907833941e-09       1.077812683770e-13      -1.583338423727e-12       1.563056397334e-16       7.682524390385e-12      -1.928448326084e-11      -8.074191309199e-15 
   90       1.571278918987e-09       1.105611025626e-13      -1.724254049398e-12       1.598233401719e-16       7.449472809821e-12      -1.886203166302e-11      -7.972357079277e-15 
   91       1.556305769935e-09       1.133429512488e-13      -1.866222940379e-12       1.633809929230e-16       7.224972421579e-12      -1.845303600066e-11      -7.869426092473e-15 
   92       1.541991082302e-09       1.161244035648e-13      -2.009138541033e-12       1.669787919881e-16       7.008951662234e-12      -1.805714634242e-11      -7.766876066381e-15 
   93       1.528330135223e-09       1.189029916425e-13      -2.152895621517e-12       1.706169449261e-16       6.801252534598e-12      -1.767383613430e-11      -7.666290508947e-15 
   94       1.515310494245e-09       1.216761906565e-13      -2.297390468451e-12       1.742956731915e-16       6.601627333922e-12      -1.730239565324e-11      -7.569361197126e-15 
   95       1.502911714135e-09       1.244414188638e-13      -2.442521075594e-12       1.780152124722e-16       6.409735374083e-12      -1.694192546066e-11      -7.477890655537e-15 
   96       1.491105041682e-09       1.271960376438e-13      -2.588187334516e-12       1.817758130271e-16       6.225139713787e-12      -1.659132985607e-11      -7.393794635125e-15 
   97       1.479853118495e-09       1.299373515381e-13      -2.734291225272e-12       1.855777400239e-16       6.047303882762e-12      -1.624931033064e-11      -7.319104591817e-15 
   98       1.469109683805e-09       1.326626082902e-13      -2.880737007077e-12       1.894212738770e-16       5.875588607954e-12      -1.591435902078e-11      -7.255970165180e-15 
   99       1.458831361406e-09       1.353690748123e-13      -3.027427389669e-12       1.933067198257e-16       5.709395164256e-12      -1.558513481190e-11      -7.205995395101e-15 
  100       1.449015567838e-09       1.380542772764e-13      -3.174251016466e-12       1.972344374884e-16       5.548625671207e-12      -1.526166658502e-11      -7.168134735806e-15 
  101       1.439667446447e-09       1.407157952627e-13      -3.321093554477e-12       2.012048161413e-16       5.393282214914e-12      -1.494430903128e-11      -7.140502248565e-15 
  102       1.430788113444e-09       1.433511898139e-13      -3.467841695597e-12       2.052182662955e-16       5.243324562344e-12      -1.463337332216e-11      -7.121005750547e-15 
  103       1.422374507188e-09       1.459580043955e-13      -3.614383298569e-12       2.092752201468e-16       5.098668664785e-12      -1.432912520130e-11      -7.107341217574e-15 
  104       1.414419237456e-09       1.485337658562e-13      -3.760607530936e-12       2.133761320250e-16       4.959185161312e-12      -1.403178307622e-11      -7.096987186876e-15 
  105       1.406910434723e-09       1.510759853879e-13      -3.906405010997e-12       2.175214788443e-16       4.824697882244e-12      -1.374151611010e-11      -7.087199159847e-15 
  106       1.399831599438e-09       1.535821594859e-13      -4.051667949757e-12       2.217117605528e-16       4.694982352613e-12      -1.345844231354e-11      -7.075004004801e-15 
  107       1.393161451298e-09       1.560497709090e-13      -4.196290292888e-12       2.259475005821e-16       4.569764295624e-12      -1.318262663632e-11      -7.057194359726e-15 
