# Matter power spectrum P(k) at redshift z=0
# for k=1.04206e-05 to 5.30492 h/Mpc,
# number of wavenumbers equal to 556
#    1:k (h/Mpc)              2:P (Mpc/h)^3        
       1.042057218102e-05       4.645576445700e+01 
       2.326965112342e-05       1.009450164154e+02 
       3.616368416807e-05       1.545467205747e+02 
       4.913719191669e-05       2.078102470053e+02 
       6.222526306398e-05       2.610508372711e+02 
       7.546386573317e-05       3.145048604736e+02 
       8.889016871848e-05       3.683847618332e+02 
       1.025428768879e-04       4.228796897501e+02 
       1.164625850317e-04       4.781767967793e+02 
       1.306921544768e-04       5.344567203037e+02 
       1.452771167918e-04       5.919087451881e+02 
       1.602661088541e-04       6.507271378990e+02 
       1.757113433752e-04       7.111204497646e+02 
       1.916691186266e-04       7.733014316921e+02 
       2.082003704669e-04       8.374971313455e+02 
       2.253712687328e-04       9.039613415977e+02 
       2.432538584349e-04       9.729542938397e+02 
       2.619267438096e-04       1.044764277442e+03 
       2.814758098253e-04       1.119700894446e+03 
       3.019949709326e-04       1.198100292156e+03 
       3.235869302973e-04       1.280325259768e+03 
       3.463639240714e-04       1.366771219926e+03 
       3.704484140771e-04       1.457862873918e+03 
       3.959736783330e-04       1.554057574073e+03 
       4.230842321551e-04       1.655846465816e+03 
       4.519359935994e-04       1.763753941965e+03 
       4.826960870599e-04       1.878332329347e+03 
       5.155421603068e-04       2.000160679226e+03 
       5.506610770795e-04       2.129833693873e+03 
       5.882468451648e-04       2.267952212645e+03 
       6.284976558480e-04       2.415120194924e+03 
       6.716119524910e-04       2.571913223421e+03 
       7.177835202431e-04       2.738866945380e+03 
       7.671956976726e-04       2.916452402762e+03 
       8.200149485734e-04       3.105066920342e+03 
       8.763841814427e-04       3.304971922418e+03 
       9.364163367208e-04       3.516315462252e+03 
       1.000188842063e-03       3.739084258067e+03 
       1.067739530145e-03       3.973110527597e+03 
       1.139064503247e-03       4.218060142562e+03 
       1.214118221432e-03       4.473446667963e+03 
       1.292815822649e-03       4.738634299497e+03 
       1.375037409677e-03       5.012858017873e+03 
       1.460633819123e-03       5.295257229653e+03 
       1.549433263665e-03       5.584964133750e+03 
       1.641248223778e-03       5.881021975023e+03 
       1.735882044008e-03       6.182492480777e+03 
       1.833134827638e-03       6.488439664298e+03 
       1.932808383275e-03       6.797957840021e+03 
       2.034710125338e-03       7.110199454501e+03 
       2.138655947732e-03       7.424361731715e+03 
       2.244472169001e-03       7.739709276354e+03 
       2.351996690227e-03       8.055570443997e+03 
       2.461079521249e-03       8.371335983617e+03 
       2.571582825440e-03       8.686457353445e+03 
       2.683380616479e-03       9.000448301662e+03 
       2.796358218588e-03       9.312875775271e+03 
       2.910411578978e-03       9.623356108879e+03 
       3.025446500195e-03       9.931553982022e+03 
       3.141377842005e-03       1.023717381365e+04 
       3.258128727724e-03       1.053996061736e+04 
       3.375629778368e-03       1.083969227985e+04 
       3.493818389279e-03       1.113617268066e+04 
       3.612638057479e-03       1.142923942893e+04 
       3.732037763470e-03       1.171875067656e+04 
       3.851971408043e-03       1.200458430944e+04 
       3.972397302633e-03       1.228664189127e+04 
       4.093277710446e-03       1.256483722933e+04 
       4.214578434858e-03       1.283910244244e+04 
       4.336268451247e-03       1.310938057437e+04 
       4.458319578333e-03       1.337562468724e+04 
       4.580706185188e-03       1.363781093826e+04 
       4.703404930262e-03       1.389589747742e+04 
       4.826394529030e-03       1.414982781443e+04 
       4.949655547142e-03       1.439970349688e+04 
       5.073170216248e-03       1.464543896658e+04 
       5.196922269937e-03       1.488701875079e+04 
       5.320896797515e-03       1.512461222942e+04 
       5.445080113588e-03       1.535744731479e+04 
       5.569459641634e-03       1.558742567764e+04 
       5.694023809978e-03       1.581268626667e+04 
       5.818761958739e-03       1.603400470774e+04 
       5.943664256511e-03       1.625049898646e+04 
       6.068721625672e-03       1.646368180668e+04 
       6.193925675349e-03       1.667273558650e+04 
       6.319268641182e-03       1.687894688912e+04 
       6.444743331135e-03       1.708036220588e+04 
       6.570343076681e-03       1.727679311378e+04 
       6.696061688782e-03       1.747124651303e+04 
       6.821893418135e-03       1.766084866266e+04 
       6.947832919238e-03       1.784714977816e+04 
       7.073875217858e-03       1.802935019393e+04 
       7.200015681550e-03       1.820789381323e+04 
       7.326249992911e-03       1.838306656891e+04 
       7.452574125278e-03       1.855424552403e+04 
       7.578984320627e-03       1.872177270165e+04 
       7.705477069457e-03       1.888612987783e+04 
       7.832049092443e-03       1.904652746177e+04 
       7.958697323705e-03       1.920374631256e+04 
       8.085418895512e-03       1.935781448038e+04 
       8.212211124305e-03       1.950793705741e+04 
       8.339071497896e-03       1.965474401213e+04 
       8.465997663740e-03       1.979783143507e+04 
       8.592987418178e-03       1.993911122827e+04 
       8.720038696556e-03       2.007581562625e+04 
       8.847149564156e-03       2.020999312980e+04 
       8.974318207839e-03       2.034068028469e+04 
       9.101542928364e-03       2.046747684674e+04 
       9.228822133307e-03       2.059160967988e+04 
       9.356154330527e-03       2.071284089837e+04 
       9.483538122139e-03       2.083093763537e+04 
       9.610972198953e-03       2.094657756921e+04 
       9.738455335323e-03       2.105821602771e+04 
       9.865986384394e-03       2.116780235591e+04 
       9.993564273694e-03       2.127344241104e+04 
       1.012118800106e-02       2.137712124136e+04 
       1.024885663085e-02       2.147796825896e+04 
       1.037656929045e-02       2.157614603131e+04 
       1.050432516701e-02       2.167120510178e+04 
       1.063212350445e-02       2.176276526876e+04 
       1.075996360063e-02       2.185305949854e+04 
       1.088784480475e-02       2.193965506088e+04 
       1.101576651498e-02       2.202354371874e+04 
       1.114372817613e-02       2.210490328463e+04 
       1.127172927762e-02       2.218414695706e+04 
       1.139976935154e-02       2.226137382629e+04 
       1.152784797079e-02       2.233500797584e+04 
       1.165596474745e-02       2.240580472242e+04 
       1.178411933118e-02       2.247455321799e+04 
       1.191231140780e-02       2.254128734293e+04 
       1.204054069789e-02       2.260562319737e+04 
       1.216880695557e-02       2.266710291098e+04 
       1.229710996733e-02       2.272682168934e+04 
       1.242544955090e-02       2.278347580631e+04 
       1.255382555428e-02       2.283820502299e+04 
       1.268223785481e-02       2.289102399199e+04 
       1.281068635825e-02       2.294108748023e+04 
       1.293917099803e-02       2.298875550032e+04 
       1.306769173445e-02       2.303479535478e+04 
       1.319624855405e-02       2.307908137263e+04 
       1.332484146892e-02       2.312007283939e+04 
       1.345347051615e-02       2.315991253269e+04 
       1.358213575726e-02       2.319661715882e+04 
       1.371083727772e-02       2.323277528302e+04 
       1.383957518651e-02       2.326590011099e+04 
       1.396834961569e-02       2.329652385010e+04 
       1.409716072003e-02       2.332586859610e+04 
       1.422600867665e-02       2.335245082407e+04 
       1.435489368476e-02       2.337877173512e+04 
       1.448381596533e-02       2.340223351483e+04 
       1.461277576092e-02       2.342441854157e+04 
       1.474177333540e-02       2.344354233395e+04 
       1.487080897380e-02       2.346264372961e+04 
       1.499988298214e-02       2.347845865370e+04 
       1.512899568732e-02       2.349286082389e+04 
       1.525814743700e-02       2.350572093658e+04 
       1.538733859953e-02       2.351604461797e+04 
       1.551656956385e-02       2.352590481023e+04 
       1.564584073954e-02       2.353317826209e+04 
       1.577515255670e-02       2.353930953421e+04 
       1.590450546606e-02       2.354351764301e+04 
       1.603389993894e-02       2.354543591556e+04 
       1.616333646732e-02       2.354727021109e+04 
       1.629281556390e-02       2.354587896802e+04 
       1.642233776221e-02       2.354400600410e+04 
       1.655190361669e-02       2.354057311930e+04 
       1.668151370282e-02       2.353560807035e+04 
       1.681116861728e-02       2.352903546307e+04 
       1.694086897806e-02       2.352029302639e+04 
       1.707061542472e-02       2.351091713115e+04 
       1.720040861847e-02       2.350048602687e+04 
       1.733024924251e-02       2.348786547996e+04 
       1.746013800215e-02       2.347479229961e+04 
       1.759007562510e-02       2.345888189740e+04 
       1.772006286174e-02       2.344323055727e+04 
       1.785010048539e-02       2.342487716187e+04 
       1.798018929257e-02       2.340650332473e+04 
       1.811033010338e-02       2.338558212073e+04 
       1.824052376175e-02       2.336386141719e+04 
       1.837077113585e-02       2.334095772786e+04 
       1.850107311840e-02       2.331682933825e+04 
       1.863143062710e-02       2.329139900071e+04 
       1.876184460497e-02       2.326470003251e+04 
       1.889231602079e-02       2.323711023739e+04 
       1.902284586954e-02       2.320836830776e+04 
       1.915343517282e-02       2.317810047170e+04 
       1.928408497933e-02       2.314738903423e+04 
       1.941479636536e-02       2.311496115685e+04 
       1.954557043527e-02       2.308192993041e+04 
       1.967640832202e-02       2.304747265750e+04 
       1.980731118771e-02       2.301251043721e+04 
       1.993828022414e-02       2.297591646014e+04 
       2.006931665338e-02       2.293840177575e+04 
       2.020042172836e-02       2.290012217894e+04 
       2.033159673351e-02       2.286089832833e+04 
       2.046284298537e-02       2.282108654370e+04 
       2.059416183327e-02       2.277973466138e+04 
       2.072555466002e-02       2.273727987303e+04 
       2.085702288256e-02       2.269446695904e+04 
       2.098856795276e-02       2.265048905347e+04 
       2.112019135811e-02       2.260581661347e+04 
       2.125189462254e-02       2.256001317101e+04 
       2.138367930717e-02       2.251375619315e+04 
       2.151554701117e-02       2.246662644592e+04 
       2.164749937262e-02       2.241879190208e+04 
       2.177953806933e-02       2.237016737687e+04 
       2.191166481979e-02       2.231969975384e+04 
       2.204388138412e-02       2.226923035874e+04 
       2.217618956496e-02       2.221811903391e+04 
       2.230859120855e-02       2.216633280667e+04 
       2.244108820567e-02       2.211406691164e+04 
       2.257368249275e-02       2.206047833111e+04 
       2.270637605295e-02       2.200650018862e+04 
       2.283917091726e-02       2.195215693215e+04 
       2.297206916568e-02       2.189656529908e+04 
       2.310507292839e-02       2.184077215877e+04 
       2.323818438700e-02       2.178430783781e+04 
       2.337140577581e-02       2.172694754177e+04 
       2.350473938315e-02       2.166941630894e+04 
       2.363818755266e-02       2.161064451183e+04 
       2.377175268477e-02       2.155157774033e+04 
       2.390543723807e-02       2.149204310709e+04 
       2.403924373083e-02       2.143256989732e+04 
       2.417317474253e-02       2.137160317638e+04 
       2.430723291542e-02       2.131056162634e+04 
       2.444142095618e-02       2.124931883738e+04 
       2.457574163760e-02       2.118701797966e+04 
       2.471019780028e-02       2.112448099116e+04 
       2.484479235450e-02       2.106134388149e+04 
       2.497952828202e-02       2.099808011788e+04 
       2.511440863801e-02       2.093413342598e+04 
       2.524943655303e-02       2.086974760630e+04 
       2.538461523512e-02       2.080497266607e+04 
       2.551994797184e-02       2.074008434913e+04 
       2.565543813252e-02       2.067480851959e+04 
       2.579108917051e-02       2.060901151216e+04 
       2.592690462549e-02       2.054217779389e+04 
       2.606288812592e-02       2.047578269604e+04 
       2.619904339155e-02       2.040890085250e+04 
       2.633537423597e-02       2.034143502819e+04 
       2.647188456935e-02       2.027388492517e+04 
       2.660857840116e-02       2.020583679791e+04 
       2.674545984307e-02       2.013727580091e+04 
       2.688253311194e-02       2.006894571225e+04 
       2.701980253287e-02       1.999984090939e+04 
       2.715727254244e-02       1.993083187638e+04 
       2.729494769197e-02       1.986137297153e+04 
       2.743283265099e-02       1.979136865991e+04 
       2.757093221079e-02       1.972178210369e+04 
       2.770925128811e-02       1.965132946936e+04 
       2.784779492897e-02       1.958092283788e+04 
       2.798656831264e-02       1.951035672284e+04 
       2.812557675579e-02       1.943985918742e+04 
       2.826482571672e-02       1.936875342353e+04 
       2.840432079988e-02       1.929730661222e+04 
       2.854406776042e-02       1.922580006589e+04 
       2.868407250906e-02       1.915452791353e+04 
       2.882434111702e-02       1.908286469699e+04 
       2.896487982126e-02       1.901121918520e+04 
       2.910569502983e-02       1.893873175688e+04 
       2.924679332755e-02       1.886653988575e+04 
       2.938818148178e-02       1.879426834152e+04 
       2.952986644856e-02       1.872162221845e+04 
       2.967185537893e-02       1.864923209371e+04 
       2.981415562554e-02       1.857634093217e+04 
       2.995677474950e-02       1.850339440444e+04 
       3.009972052758e-02       1.843084832060e+04 
       3.024300095968e-02       1.835774441945e+04 
       3.038662427662e-02       1.828459275335e+04 
       3.053059894830e-02       1.821168044086e+04 
       3.067493369218e-02       1.813843681393e+04 
       3.081963748218e-02       1.806497841368e+04 
       3.096471955791e-02       1.799162897059e+04 
       3.111018943440e-02       1.791812386280e+04 
       3.125605691220e-02       1.784495841473e+04 
       3.140233208800e-02       1.777120801531e+04 
       3.154902536572e-02       1.769798613897e+04 
       3.169614746808e-02       1.762414246078e+04 
       3.184370944881e-02       1.755049958649e+04 
       3.199172270533e-02       1.747676993331e+04 
       3.214019899213e-02       1.740305197149e+04 
       3.228915043476e-02       1.732963091568e+04 
       3.243858954453e-02       1.725618608202e+04 
       3.258852923389e-02       1.718273355981e+04 
       3.273898283262e-02       1.710906089831e+04 
       3.288996410486e-02       1.703511138304e+04 
       3.304148726696e-02       1.696158857966e+04 
       3.319356700626e-02       1.688787797996e+04 
       3.334621850089e-02       1.681465339582e+04 
       3.349945744058e-02       1.674069907723e+04 
       3.365330004854e-02       1.666727463189e+04 
       3.380776310462e-02       1.659362464986e+04 
       3.396286396965e-02       1.652017768945e+04 
       3.411862061110e-02       1.644680239881e+04 
       3.427505163025e-02       1.637371262842e+04 
       3.443217629083e-02       1.629987318944e+04 
       3.459001454926e-02       1.622669082005e+04 
       3.474858708671e-02       1.615337685420e+04 
       3.490791534296e-02       1.607992823916e+04 
       3.506802155224e-02       1.600697226504e+04 
       3.522892878128e-02       1.593365123498e+04 
       3.539066096952e-02       1.586068878427e+04 
       3.555324297194e-02       1.578763098492e+04 
       3.571670060433e-02       1.571470886327e+04 
       3.588106069155e-02       1.564173449026e+04 
       3.604635111876e-02       1.556861350336e+04 
       3.621260088590e-02       1.549578705528e+04 
       3.637984016575e-02       1.542317977270e+04 
       3.654810036579e-02       1.535048718265e+04 
       3.671741419408e-02       1.527805301602e+04 
       3.688781572972e-02       1.520512928168e+04 
       3.705934049795e-02       1.513263726143e+04 
       3.723202555053e-02       1.506014783594e+04 
       3.740590955172e-02       1.498776571355e+04 
       3.758103287036e-02       1.491545917984e+04 
       3.775743767855e-02       1.484318181198e+04 
       3.793516805749e-02       1.477087101328e+04 
       3.811427011127e-02       1.469872228123e+04 
       3.829479208903e-02       1.462657932635e+04 
       3.847678451653e-02       1.455453105443e+04 
       3.866030033781e-02       1.448287146648e+04 
       3.884539506797e-02       1.441051240699e+04 
       3.903212695812e-02       1.433891627454e+04 
       3.922055717360e-02       1.426730270082e+04 
       3.941074998689e-02       1.419482193540e+04 
       3.960277298649e-02       1.412293458965e+04 
       3.979669730355e-02       1.405117517013e+04 
       3.999259785801e-02       1.397929857146e+04 
       4.019055362619e-02       1.390763478566e+04 
       4.039064793222e-02       1.383596168899e+04 
       4.059296876580e-02       1.376406485469e+04 
       4.079760912922e-02       1.369236206545e+04 
       4.100466741681e-02       1.362059248327e+04 
       4.121424783056e-02       1.354873647046e+04 
       4.142646083607e-02       1.347704006512e+04 
       4.164142366350e-02       1.340507828638e+04 
       4.185926085895e-02       1.333335142858e+04 
       4.208010489239e-02       1.326207521180e+04 
       4.230409682914e-02       1.318949704419e+04 
       4.253138707286e-02       1.311751746550e+04 
       4.276213618943e-02       1.304544122005e+04 
       4.299651582211e-02       1.297330012800e+04 
       4.323470971049e-02       1.290123180103e+04 
       4.347691482711e-02       1.282845228762e+04 
       4.372334264845e-02       1.275619390302e+04 
       4.397422057936e-02       1.268385212472e+04 
       4.422979355318e-02       1.261093606377e+04 
       4.449032583397e-02       1.253796786453e+04 
       4.475610305132e-02       1.246484990418e+04 
       4.502743450429e-02       1.239145638958e+04 
       4.530465577708e-02       1.231809991164e+04 
       4.558813171754e-02       1.224431094999e+04 
       4.587825983897e-02       1.217037741094e+04 
       4.617547421776e-02       1.209579469494e+04 
       4.648024997382e-02       1.202110434510e+04 
       4.679310843848e-02       1.194627396602e+04 
       4.711462313673e-02       1.187069644302e+04 
       4.744542673780e-02       1.179487130540e+04 
       4.778621916177e-02       1.171841188416e+04 
       4.813777707257e-02       1.164174143350e+04 
       4.850096504050e-02       1.156404238494e+04 
       4.887674872438e-02       1.148568104768e+04 
       4.926621050782e-02       1.140714581620e+04 
       4.967056813129e-02       1.132756429324e+04 
       5.009119699784e-02       1.124704890720e+04 
       5.052965700368e-02       1.116571465732e+04 
       5.098772496627e-02       1.108325534965e+04 
       5.146743400414e-02       1.099949194077e+04 
       5.197112157982e-02       1.091501971871e+04 
       5.250148836704e-02       1.082810034684e+04 
       5.306167066023e-02       1.074052027064e+04 
       5.365532971716e-02       1.065023672533e+04 
       5.428676219834e-02       1.055822806319e+04 
       5.496103667465e-02       1.046327203544e+04 
       5.568416183614e-02       1.036538112122e+04 
       5.646329214238e-02       1.026393346700e+04 
       5.730697534282e-02       1.015808006200e+04 
       5.822544184871e-02       1.004670371950e+04 
       5.923092511196e-02       9.929040629090e+03 
       6.033797923594e-02       9.802890085523e+03 
       6.156371593844e-02       9.665891285550e+03 
