# dimensionless total [l(l+1)/2pi] C_l's
# for l=2 to 3000, i.e. number of multipoles equal to 2999
#
# -> if you prefer output in CAMB/HealPix/LensPix units/order, set 'format' to 'camb' in input file
# -> if you don't want to see such a header, set 'headers' to 'no' in input file
# -> for CMB lensing (phi), these are C_l^phi-phi for the lensing potential.
#    Remember the conversion factors:
#    C_l^dd (deflection) = l(l+1) C_l^phi-phi
#    C_l^gg (shear/convergence) = 1/4 (l(l+1))^2 C_l^phi-phi
#
# 1:l     2:TT                     3:EE                     4:TE                     5:BB                     6:phiphi                 7:TPhi                   8:Ephi               
    2       2.930370331166e-08       6.444594719721e-15       1.322572325281e-11       0.000000000000e+00       6.183077508468e-09      -3.168764843147e-09      -1.814053026630e-12 
    3       2.622699458854e-08       8.119878577322e-15       1.406764071956e-11       0.000000000000e+00       3.752610506802e-09      -1.928963691802e-09      -1.280734560511e-12 
    4       2.374154931969e-08       6.786767638501e-15       1.243643296903e-11       0.000000000000e+00       2.576479590470e-09      -1.351396281327e-09      -7.207438590397e-13 
    5       2.167873912605e-08       4.532676389971e-15       9.624216957130e-12       0.000000000000e+00       1.903211143703e-09      -1.028400074502e-09      -2.616292804090e-13 
    6       1.993049863699e-08       3.048181572364e-15       6.516813000640e-12       0.000000000000e+00       1.473192498914e-09      -8.237445539768e-10       6.392147105205e-14 
    7       1.842490410647e-08       2.697087524722e-15       3.692478218864e-12       0.000000000000e+00       1.178775796882e-09      -6.835714356415e-10       2.571319186168e-13 
    8       1.711130995716e-08       2.917141112541e-15       1.465222057857e-12       0.000000000000e+00       9.669373164545e-10      -5.819700569049e-10       3.375722006082e-13 
    9       1.595298173851e-08       3.030913009344e-15      -5.317134502112e-14       0.000000000000e+00       8.086313631981e-10      -5.050515667564e-10       3.341413596155e-13 
   10       1.492312406377e-08       2.740124829261e-15      -8.932587551274e-13       0.000000000000e+00       6.867650473886e-10      -4.448537319219e-10       2.783728814310e-13 
   11       1.400091883515e-08       2.144924730304e-15      -1.172410346481e-12       0.000000000000e+00       5.861259333524e-10      -3.848000509962e-10       2.030901640399e-13 
   12       1.317002091296e-08       1.504403497646e-15      -1.047017851039e-12       0.000000000000e+00       5.099260988957e-10      -3.494918952239e-10       1.219156845537e-13 
   13       1.241779442091e-08       1.013564280393e-15      -6.753809738668e-13       0.000000000000e+00       4.475626180656e-10      -3.163291591541e-10       5.428876767975e-14 
   14       1.173369389196e-08       7.277334120144e-16      -1.933096028695e-13       0.000000000000e+00       3.958384413342e-10      -2.917324194838e-10       5.738423814290e-15 
   15       1.110902960412e-08       6.065029100728e-16       2.984342189104e-13       0.000000000000e+00       3.524307208792e-10      -2.658778294822e-10      -2.280424806601e-14 
   16       1.053648669443e-08       5.871852155698e-16       7.371513699912e-13       0.000000000000e+00       3.156321830184e-10      -2.476543142457e-10      -3.446952042742e-14 
   17       1.001012636754e-08       6.276233422152e-16       1.093796420117e-12       0.000000000000e+00       2.841570583476e-10      -2.305922301726e-10      -3.556158722583e-14 
   18       9.523338617353e-09       7.103757434718e-16       1.365375659157e-12       0.000000000000e+00       2.569190122818e-10      -2.141248109260e-10      -3.209246219181e-14 
   19       9.076224009312e-09       8.329952275468e-16       1.562099889566e-12       0.000000000000e+00       2.334541258425e-10      -1.994769202009e-10      -2.785502645356e-14 
   20       8.660004765687e-09       9.937180021007e-16       1.705138070484e-12       0.000000000000e+00       2.128444571495e-10      -1.868376198972e-10      -2.628890557942e-14 
   21       8.273856278886e-09       1.189961964234e-15       1.810621297302e-12       0.000000000000e+00       1.947503381573e-10      -1.759333812587e-10      -2.783034392193e-14 
   22       7.913589958487e-09       1.416712827033e-15       1.895909316627e-12       0.000000000000e+00       1.787225533081e-10      -1.661272762430e-10      -3.156267824669e-14 
   23       7.578364217526e-09       1.665785001143e-15       1.968950613735e-12       0.000000000000e+00       1.645378871285e-10      -1.571942819170e-10      -3.588552194366e-14 
   24       7.264432583401e-09       1.927473241564e-15       2.035050910304e-12       0.000000000000e+00       1.518640489383e-10      -1.489365178057e-10      -3.884019925844e-14 
   25       6.970501343508e-09       2.198144311141e-15       2.094743539564e-12       0.000000000000e+00       1.405201032050e-10      -1.413201374960e-10      -3.941794424062e-14 
   26       6.693685361423e-09       2.477381142877e-15       2.147161280897e-12       0.000000000000e+00       1.302743234750e-10      -1.342995725892e-10      -3.708020987280e-14 
   27       6.434543745004e-09       2.771181317513e-15       2.192080009297e-12       0.000000000000e+00       1.210688668876e-10      -1.278773760597e-10      -3.235736476754e-14 
   28       6.191906074876e-09       3.089419341512e-15       2.229545638083e-12       0.000000000000e+00       1.127884505667e-10      -1.219961955174e-10      -2.637304035938e-14 
   29       5.962213919902e-09       3.442854274330e-15       2.259862573265e-12       0.000000000000e+00       1.052272946685e-10      -1.165309491856e-10      -2.043320881040e-14 
   30       5.745528642084e-09       3.836042591757e-15       2.284109200909e-12       0.000000000000e+00       9.834050814791e-11      -1.114381446337e-10      -1.524284364379e-14 
   31       5.541362640299e-09       4.271687388754e-15       2.303858964072e-12       0.000000000000e+00       9.207378572263e-11      -1.066513654221e-10      -1.139992761608e-14 
   32       5.347797091099e-09       4.751932726639e-15       2.320744863612e-12       0.000000000000e+00       8.632417440050e-11      -1.020769117520e-10      -9.384164609934e-15 
   33       5.164699570354e-09       5.276646776216e-15       2.335311184095e-12       0.000000000000e+00       8.105794316512e-11      -9.773715247140e-11      -8.799131360308e-15 
   34       4.991369877003e-09       5.844407681234e-15       2.347732995392e-12       0.000000000000e+00       7.622607662476e-11      -9.367357062164e-11      -8.830934150307e-15 
   35       4.826280574511e-09       6.453556730644e-15       2.358084024152e-12       0.000000000000e+00       7.175393848419e-11      -8.990592383503e-11      -8.638247289545e-15 
   36       4.669635059483e-09       7.104546889040e-15       2.366275697327e-12       0.000000000000e+00       6.762857017761e-11      -8.642881805432e-11      -8.082351135282e-15 
   37       4.521499418123e-09       7.798355858198e-15       2.372073221872e-12       0.000000000000e+00       6.383596555620e-11      -8.320955070950e-11      -7.241132586846e-15 
   38       4.381007986398e-09       8.535853798580e-15       2.375092977124e-12       0.000000000000e+00       6.033473815274e-11      -8.018564595155e-11      -6.218070086110e-15 
   39       4.246823321175e-09       9.317797704985e-15       2.374968009590e-12       0.000000000000e+00       5.707073851657e-11      -7.728550427492e-11      -5.143338819837e-15 
   40       4.118927534127e-09       1.014483169548e-14       2.371948147670e-12       0.000000000000e+00       5.403301931353e-11      -7.450524904234e-11      -4.173097906905e-15 
   41       3.997288463976e-09       1.101747341982e-14       2.366479915440e-12       0.000000000000e+00       5.121274314565e-11      -7.185365974894e-11      -3.493045085908e-15 
   42       3.881311919304e-09       1.193610395927e-14       2.359043057139e-12       0.000000000000e+00       4.858650314700e-11      -6.933028537235e-11      -3.320898000212e-15 
   43       3.770158059446e-09       1.290116101636e-14       2.349989396197e-12       0.000000000000e+00       4.612474524026e-11      -6.692886987073e-11      -3.832794093169e-15 
   44       3.663926657344e-09       1.391380908229e-14       2.339001719159e-12       0.000000000000e+00       4.382305792952e-11      -6.465097315827e-11      -4.910830969372e-15 
   45       3.562757278011e-09       1.497546498559e-14       2.325464498249e-12       0.000000000000e+00       4.167858612048e-11      -6.249512566075e-11      -6.319821814007e-15 
   46       3.466469217002e-09       1.608761974505e-14       2.308598568782e-12       0.000000000000e+00       3.968065053126e-11      -6.045231642526e-11      -7.772941101700e-15 
   47       3.374534820063e-09       1.725184343409e-14       2.287450014014e-12       0.000000000000e+00       3.781014114459e-11      -5.850539313115e-11      -8.928743719497e-15 
   48       3.286296080585e-09       1.846941134076e-14       2.261159322448e-12       0.000000000000e+00       3.604528441927e-11      -5.663505484101e-11      -9.483155765841e-15 
   49       3.201748885245e-09       1.974004648393e-14       2.229884514266e-12       0.000000000000e+00       3.438228260677e-11      -5.484122781192e-11      -9.483065926943e-15 
   50       3.120933997777e-09       2.106283098540e-14       2.194119135846e-12       0.000000000000e+00       3.281945028801e-11      -5.312668441503e-11      -9.096010188189e-15 
   51       3.043699165498e-09       2.243653972445e-14       2.154437812797e-12       0.000000000000e+00       3.135107414501e-11      -5.149071934740e-11      -8.524736806416e-15 
   52       2.969684851094e-09       2.385962588053e-14       2.111499434419e-12       0.000000000000e+00       2.996713160484e-11      -4.992888600722e-11      -8.009070926557e-15 
   53       2.898469583784e-09       2.533077213531e-14       2.065888024838e-12       0.000000000000e+00       2.865636662220e-11      -4.843495384474e-11      -7.769370806111e-15 
   54       2.830082736216e-09       2.685074395804e-14       2.017579987276e-12       0.000000000000e+00       2.741709321500e-11      -4.700797814809e-11      -7.815534533116e-15 
   55       2.764598737025e-09       2.842098768236e-14       1.966345415497e-12       0.000000000000e+00       2.624867961742e-11      -4.564658874201e-11      -8.092130510377e-15 
   56       2.701981587989e-09       3.004311561251e-14       1.911894876219e-12       0.000000000000e+00       2.514829687668e-11      -4.434676147462e-11      -8.531935744004e-15 
   57       2.642077288454e-09       3.171891528349e-14       1.853875787971e-12       0.000000000000e+00       2.411077825761e-11      -4.310164771521e-11      -9.055351470871e-15 
   58       2.584606259750e-09       3.345035872112e-14       1.791868799962e-12       0.000000000000e+00       2.312847864708e-11      -4.190140385218e-11      -9.569818786067e-15 
   59       2.529260116773e-09       3.523892461713e-14       1.725510164271e-12       0.000000000000e+00       2.219333820888e-11      -4.073618427560e-11      -9.987675116413e-15 
   60       2.476035431420e-09       3.708336000602e-14       1.654900262350e-12       0.000000000000e+00       2.130395230214e-11      -3.960631922352e-11      -1.028589329351e-14 
   61       2.424964227952e-09       3.898141422507e-14       1.580283719306e-12       0.000000000000e+00       2.045989784382e-11      -3.851420339689e-11      -1.045920753200e-14 
   62       2.376012494976e-09       4.093046655095e-14       1.501932388774e-12       0.000000000000e+00       1.965960888779e-11      -3.746127832118e-11      -1.050293229558e-14 
   63       2.329076147050e-09       4.292751216883e-14       1.420146002747e-12       0.000000000000e+00       1.890031074977e-11      -3.644796908096e-11      -1.041300303788e-14 
   64       2.283976986303e-09       4.496914814147e-14       1.335252821398e-12       0.000000000000e+00       1.817795413213e-11      -3.547362105458e-11      -1.018601694331e-14 
   65       2.240523609903e-09       4.705225827372e-14       1.247555443454e-12       0.000000000000e+00       1.748830621919e-11      -3.453693374695e-11      -9.824446422000e-15 
   66       2.198718195917e-09       4.917626780366e-14       1.157153438720e-12       0.000000000000e+00       1.683064050630e-11      -3.363751118142e-11      -9.353471405972e-15 
   67       2.158586421525e-09       5.134134254535e-14       1.064084202831e-12       0.000000000000e+00       1.620471296373e-11      -3.277452773156e-11      -8.807795202857e-15 
   68       2.120114201283e-09       5.354773754351e-14       9.683736145194e-13       0.000000000000e+00       1.560964113393e-11      -3.194621155793e-11      -8.226968263883e-15 
   69       2.083245465395e-09       5.579580259215e-14       8.700351514747e-13       0.000000000000e+00       1.504387061917e-11      -3.114979524747e-11      -7.655573617172e-15 
   70       2.047879938001e-09       5.808598775313e-14       7.690690061975e-13       0.000000000000e+00       1.450514156920e-11      -3.038146645307e-11      -7.143412301041e-15 
   71       2.013870915452e-09       6.041884887481e-14       6.654612018546e-13       0.000000000000e+00       1.399045516890e-11      -2.963631853296e-11      -6.745688797299e-15 
   72       1.981070234622e-09       6.279462913273e-14       5.592030487300e-13       0.000000000000e+00       1.349682932671e-11      -2.890964831055e-11      -6.509523143429e-15 
   73       1.949478107955e-09       6.521189839695e-14       4.503558019987e-13       0.000000000000e+00       1.302380814246e-11      -2.820124743482e-11      -6.430077886717e-15 
   74       1.919118168158e-09       6.766866144838e-14       3.389968750062e-13       0.000000000000e+00       1.257137581239e-11      -2.751184937933e-11      -6.486305598931e-15 
   75       1.889991701650e-09       7.016275472505e-14       2.252001857388e-13       0.000000000000e+00       1.213919487795e-11      -2.684183701975e-11      -6.653751434323e-15 
   76       1.862076504240e-09       7.269184216093e-14       1.090357370769e-13       0.000000000000e+00       1.172659073171e-11      -2.619122402948e-11      -6.904426386645e-15 
   77       1.835325736803e-09       7.525341102463e-14      -9.430802953282e-15       0.000000000000e+00       1.133253612329e-11      -2.555963627537e-11      -7.206680546168e-15 
   78       1.809666780958e-09       7.784476775817e-14      -1.301385209265e-13       0.000000000000e+00       1.095563566533e-11      -2.494629321328e-11      -7.525076356701e-15 
   79       1.785000094748e-09       8.046303381575e-14      -2.530316777661e-13       0.000000000000e+00       1.059411033938e-11      -2.434998928380e-11      -7.820261872608e-15 
   80       1.761228081199e-09       8.310539084103e-14      -3.780508519398e-13       0.000000000000e+00       1.024623056448e-11      -2.376953359797e-11      -8.057168721468e-15 
   81       1.738349985214e-09       8.576987438943e-14      -5.051036742416e-13       0.000000000000e+00       9.911736103341e-12      -2.320519786148e-11      -8.231524419152e-15 
   82       1.716381465225e-09       8.845471109739e-14      -6.340897530965e-13       0.000000000000e+00       9.590635615446e-12      -2.265748712043e-11      -8.347734529432e-15 
   83       1.695325464642e-09       9.115808203600e-14      -7.649097438336e-13       0.000000000000e+00       9.282772919931e-12      -2.212669384390e-11      -8.410993903794e-15 
   84       1.675171623321e-09       9.387812316712e-14      -8.974655966456e-13       0.000000000000e+00       8.987819808224e-12      -2.161288780644e-11      -8.427314099673e-15 
   85       1.655895689039e-09       9.661292579951e-14      -1.031660804548e-12       0.000000000000e+00       8.705268856693e-12      -2.111590597055e-11      -8.403550798687e-15 
   86       1.637458928966e-09       9.936053704497e-14      -1.167400651339e-12       0.000000000000e+00       8.434426239307e-12      -2.063534236919e-11      -8.347431224867e-15 
   87       1.619807541134e-09       1.021189602745e-13      -1.304592459557e-12       0.000000000000e+00       8.174404540283e-12      -2.017053798829e-11      -8.267581562895e-15 
   88       1.602872065915e-09       1.048861555742e-13      -1.443145838445e-12       0.000000000000e+00       7.924115566738e-12      -1.972057064924e-11      -8.173554376334e-15 
   89       1.586586217211e-09       1.076600121922e-13      -1.582969118392e-12       0.000000000000e+00       7.682524390385e-12      -1.928448326084e-11      -8.074191309199e-15 
   90       1.570948044278e-09       1.104382599296e-13      -1.723957472788e-12       0.000000000000e+00       7.449472809821e-12      -1.886203166302e-11      -7.972357079277e-15 
   91       1.555967324531e-09       1.132185446249e-13      -1.866003381054e-12       0.000000000000e+00       7.224972421579e-12      -1.845303600066e-11      -7.869426092473e-15 
   92       1.541646704469e-09       1.159984549630e-13      -2.009000464435e-12       0.000000000000e+00       7.008951662234e-12      -1.805714634242e-11      -7.766876066381e-15 
   93       1.527981402090e-09       1.187755225108e-13      -2.152843676841e-12       0.000000000000e+00       6.801252534598e-12      -1.767383613430e-11      -7.666290508947e-15 
   94       1.514958909284e-09       1.215472217547e-13      -2.297429495662e-12       0.000000000000e+00       6.601627333922e-12      -1.730239565324e-11      -7.569361197126e-15 
   95       1.502558694246e-09       1.243109701362e-13      -2.442656112608e-12       0.000000000000e+00       6.409735374083e-12      -1.694192546066e-11      -7.477890655537e-15 
   96       1.490751903876e-09       1.270641280890e-13      -2.588423624528e-12       0.000000000000e+00       6.225139713787e-12      -1.659132985607e-11      -7.393794635125e-15 
   97       1.479501066184e-09       1.298039990752e-13      -2.734634224244e-12       0.000000000000e+00       6.047303882762e-12      -1.624931033064e-11      -7.319104591817e-15 
   98       1.468759792695e-09       1.325278296221e-13      -2.881192391376e-12       0.000000000000e+00       5.875588607954e-12      -1.591435902078e-11      -7.255970165180e-15 
   99       1.458484560119e-09       1.352328849668e-13      -3.028001040625e-12       0.000000000000e+00       5.709395164256e-12      -1.558513481190e-11      -7.205995395101e-15 
  100       1.448672602760e-09       1.379166881379e-13      -3.174948931624e-12       0.000000000000e+00       5.548625671207e-12      -1.526166658502e-11      -7.168134735806e-15 
  101       1.439328859362e-09       1.405768149633e-13      -3.321921822002e-12       0.000000000000e+00       5.393282214914e-12      -1.494430903128e-11      -7.140502248565e-15 
  102       1.430454223399e-09       1.432108224234e-13      -3.468806490881e-12       0.000000000000e+00       5.243324562344e-12      -1.463337332216e-11      -7.121005750547e-15 
  103       1.422045391892e-09       1.458162496047e-13      -3.615490880696e-12       0.000000000000e+00       5.098668664785e-12      -1.432912520130e-11      -7.107341217574e-15 
  104       1.414094714229e-09       1.483906186520e-13      -3.761864239029e-12       0.000000000000e+00       4.959185161312e-12      -1.403178307622e-11      -7.096987186876e-15 
  105       1.406590040984e-09       1.509314357222e-13      -3.907817260430e-12       0.000000000000e+00       4.824697882244e-12      -1.374151611010e-11      -7.087199159847e-15 
  106       1.399514572738e-09       1.534361919365e-13      -4.053242228250e-12       0.000000000000e+00       4.694982352613e-12      -1.345844231354e-11      -7.075004004801e-15 
  107       1.392846708898e-09       1.559023643340e-13      -4.198033156467e-12       0.000000000000e+00       4.569764295624e-12      -1.318262663632e-11      -7.057194359726e-15 
