# dimensionless total lensed [l(l+1)/2pi] C_l's
# for l=2 to 2500, i.e. number of multipoles equal to 2499
#
# -> if you prefer output in CAMB/HealPix/LensPix units/order, set 'format' to 'camb' in input file
# -> if you don't want to see such a header, set 'headers' to 'no' in input file
# -> for CMB lensing (phi), these are C_l^phi-phi for the lensing potential.
#    Remember the conversion factors:
#    C_l^dd (deflection) = l(l+1) C_l^phi-phi
#    C_l^gg (shear/convergence) = 1/4 (l(l+1))^2 C_l^phi-phi
#
# 1:l     2:TT                     3:EE                     4:TE                     5:BB                     6:phiphi                 7:TPhi                   8:Ephi               
    2       8.135965776440e-10       4.435686876323e-15       1.633048588862e-12       2.110524891236e-19       7.962748223176e-09      -7.073437927919e-11      -1.844323379116e-12 
    3       7.446329802568e-10       5.666712313213e-15       1.750935477684e-12       4.221939230527e-19       4.881101397812e-09      -1.100250293239e-11      -1.386908150010e-12 
    4       6.778837364450e-10       4.867528985482e-15       1.579888788887e-12       7.038525815036e-19       3.376532666968e-09       3.955974384984e-12      -8.945334395926e-13 
    5       6.192565707095e-10       3.223372194920e-15       1.277343764494e-12       1.056142611879e-18       2.510119162859e-09       6.658786350194e-12      -4.810232350015e-13 
    6       5.687936060067e-10       1.809518390255e-15       9.439930276307e-13       1.479202966084e-18       1.954106403711e-09       5.851368837772e-12      -1.777242655433e-13 
    7       5.253185787561e-10       1.021905194733e-15       6.431524976575e-13       1.973195060543e-18       1.571869796827e-09       4.048391952994e-12       1.398013703552e-14 
    8       4.876439966112e-10       7.195051663749e-16       4.068778679173e-13       2.538300110293e-18       1.295815397532e-09       2.156270273190e-12       1.095379547863e-13 
    9       4.547314194730e-10       6.154982321496e-16       2.449720417953e-13       3.174716207038e-18       1.088777702667e-09       5.204265173180e-13       1.330237703298e-13 
   10       4.257765653437e-10       5.322189966814e-16       1.524941656199e-13       3.882655216741e-18       9.288388371236e-10      -8.060580557037e-13       1.110992194227e-13 
   11       4.002040247004e-10       4.370947177650e-16       1.160653255502e-13       4.662339575641e-18       7.947877773530e-10      -1.106219518457e-12       6.880252163867e-14 
   12       3.774343100136e-10       3.617790081772e-16       1.190304642761e-13       5.513999064441e-18       6.942134580788e-10      -2.510761180664e-12       2.390352705266e-14 
   13       3.571166096303e-10       3.279061088768e-16       1.454122206479e-13       6.437867638817e-18       6.116623483756e-10      -3.232547610074e-12      -1.094238327818e-14 
   14       3.389346967298e-10       3.292566628271e-16       1.821984865269e-13       7.434180390431e-18       5.429939425912e-10      -4.188691506483e-12      -3.128663846568e-14 
   15       3.226355464489e-10       3.504380475902e-16       2.203274344845e-13       8.503170706436e-18       4.852077302656e-10      -4.748256709655e-12      -3.717712133367e-14 
   16       3.079296707580e-10       3.847825397006e-16       2.546547507528e-13       9.645067687277e-18       4.360855438209e-10      -5.206348784916e-12      -3.257715096165e-14 
   17       2.946846075447e-10       4.357935332922e-16       2.832224259224e-13       1.086009387272e-17       3.939554527839e-10      -5.564539949003e-12      -2.278761695203e-14 
   18       2.826740662187e-10       5.089251987437e-16       3.065232268844e-13       1.214846318737e-17       3.574002547601e-10      -5.820532951929e-12      -1.288658077268e-14 
   19       2.718869456383e-10       6.051738494886e-16       3.258834460342e-13       1.351038002465e-17       3.258260454065e-10      -6.006998466909e-12      -5.662175669938e-15 
   20       2.620803433994e-10       7.231892497432e-16       3.432078393175e-13       1.494603666879e-17       2.980256232753e-10      -6.149425238264e-12      -3.056716589353e-15 
   21       2.532243734125e-10       8.621675624852e-16       3.596094967236e-13       1.645561447694e-17       2.735592932785e-10      -6.262911427155e-12      -4.632176033112e-15 
   22       2.451899186554e-10       1.020991634538e-15       3.759615061798e-13       1.803928119765e-17       2.518359092167e-10      -6.357598175241e-12      -8.736176355840e-15 
   23       2.379454244393e-10       1.199004383963e-15       3.922694018569e-13       1.969719379167e-17       2.325633969771e-10      -6.425070740080e-12      -1.361696148820e-14 
   24       2.313781069216e-10       1.395502179501e-15       4.081767022991e-13       2.142949529025e-17       2.153005234812e-10      -6.452352390254e-12      -1.737142953526e-14 
   25       2.254440054055e-10       1.610394139593e-15       4.232060517509e-13       2.323631817530e-17       1.998116884005e-10      -6.445195133109e-12      -1.914098618781e-14 
   26       2.200552288698e-10       1.844029680592e-15       4.368457187763e-13       2.511778225169e-17       1.857921982709e-10      -6.415876450107e-12      -1.855223038069e-14 
   27       2.152265775300e-10       2.098406210372e-15       4.489589397214e-13       2.707400231606e-17       1.731686270961e-10      -6.371667099155e-12      -1.612007558341e-14 
   28       2.109273657359e-10       2.376399831836e-15       4.595444675844e-13       2.910508107965e-17       1.617874454340e-10      -6.318912173223e-12      -1.287255124282e-14 
   29       2.070600383774e-10       2.680972589263e-15       4.686452279888e-13       3.121110940585e-17       1.513715941248e-10      -6.262760555475e-12      -9.964507229911e-15 
   30       2.036227353922e-10       3.013461599806e-15       4.763814475556e-13       3.339217891936e-17       1.418631183446e-10      -6.200059876636e-12      -7.834258095548e-15 
   31       2.005959654189e-10       3.374607906938e-15       4.829364303405e-13       3.564837334796e-17       1.331908853518e-10      -6.123305615529e-12      -6.725426644391e-15 
   32       1.979197159349e-10       3.765066573032e-15       4.884845666709e-13       3.797976777677e-17       1.252170376515e-10      -6.025677603735e-12      -6.784441465361e-15 
   33       1.955850583128e-10       4.185728071901e-15       4.929557693897e-13       4.038643908099e-17       1.178977342911e-10      -5.913266379350e-12      -7.649384808146e-15 
   34       1.935672403210e-10       4.637499535025e-15       4.961812096651e-13       4.286845889442e-17       1.111677588101e-10      -5.797392591367e-12      -8.694102083942e-15 
   35       1.918193989719e-10       5.121239240923e-15       4.979742954149e-13       4.542589301395e-17       1.049264942306e-10      -5.688992254254e-12      -9.285443579800e-15 
   36       1.903489542639e-10       5.637841816963e-15       4.982119477893e-13       4.805880931701e-17       9.915752372189e-11      -5.589755264792e-12      -9.346729937337e-15 
   37       1.891623123090e-10       6.188174082403e-15       4.967775412741e-13       5.076727253301e-17       9.384260077135e-11      -5.497869070064e-12      -8.984971819243e-15 
   38       1.882415137661e-10       6.773047122657e-15       4.935374012194e-13       5.355134220373e-17       8.892550088345e-11      -5.410219440414e-12      -8.345202639630e-15 
   39       1.875544158477e-10       7.393203576907e-15       4.883820173493e-13       5.641107316896e-17       8.433224972857e-11      -5.323166449571e-12      -7.593544466949e-15 
   40       1.870953550509e-10       8.049284495689e-15       4.813703549922e-13       5.934651711288e-17       8.004862285344e-11      -5.235469717619e-12      -6.852638027124e-15 
   41       1.868542612525e-10       8.741844154714e-15       4.726321608618e-13       6.235772162038e-17       7.606320954031e-11      -5.146168602393e-12      -6.248890379919e-15 
   42       1.868037684013e-10       9.471352806280e-15       4.623311403642e-13       6.544472985965e-17       7.234429125835e-11      -5.053731370544e-12      -5.931597143833e-15 
   43       1.869108474281e-10       1.023827219521e-14       4.506110150857e-13       6.860757837041e-17       6.885153220875e-11      -4.956732176504e-12      -6.026303753974e-15 
   44       1.871795713861e-10       1.104332180072e-14       4.374095216235e-13       7.184628941756e-17       6.557944686831e-11      -4.856245723339e-12      -6.474429174054e-15 
   45       1.876191715616e-10       1.188728738706e-14       4.225893158843e-13       7.516087638641e-17       6.252461123345e-11      -4.754119946363e-12      -7.145829307388e-15 
   46       1.882314333040e-10       1.277094803545e-14       4.059868409441e-13       7.855134580188e-17       5.967261432071e-11      -4.652315741551e-12      -7.880705265760e-15 
   47       1.890100369764e-10       1.369507635556e-14       3.874105253434e-13       8.201769726255e-17       5.699720217880e-11      -4.552905751044e-12      -8.487871697552e-15 
   48       1.899440330973e-10       1.466031784603e-14       3.666873439388e-13       8.555992051620e-17       5.446833969889e-11      -4.457697116660e-12      -8.796694712742e-15 
   49       1.910309639295e-10       1.566678826923e-14       3.438222247209e-13       8.917798586570e-17       5.208108062148e-11      -4.366976825426e-12      -8.834258867273e-15 
   50       1.922663083857e-10       1.671436314476e-14       3.188804812948e-13       9.287185094529e-17       4.983336494741e-11      -4.280410605673e-12      -8.695166175542e-15 
   51       1.936392336848e-10       1.780278288347e-14       2.919440229346e-13       9.664146313624e-17       4.771742054155e-11      -4.197368182480e-12      -8.493208640569e-15 
   52       1.951321472312e-10       1.893164683311e-14       2.631120203554e-13       1.004867593550e-16       4.571936213446e-11      -4.116902877879e-12      -8.362374826861e-15 
   53       1.967265036944e-10       2.010058033082e-14       2.324710699335e-13       1.044076674027e-16       4.382353847220e-11      -4.038010121674e-12      -8.423273304402e-15 
   54       1.984230108550e-10       2.130979999790e-14       1.999951468072e-13       1.084041109089e-16       4.202780916581e-11      -3.960527982968e-12      -8.669949645037e-15 
   55       2.002258385362e-10       2.255968342891e-14       1.656210857758e-13       1.124760052901e-16       4.033149729178e-11      -3.884432649939e-12      -9.055719537874e-15 
   56       2.021366365309e-10       2.385061017887e-14       1.292762316743e-13       1.166232561560e-16       3.873078772594e-11      -3.809571278919e-12      -9.524770918513e-15 
   57       2.041543487527e-10       2.518296306287e-14       9.087782625416e-14       1.208457591638e-16       3.721852522894e-11      -3.735653288951e-12      -1.001172051555e-14 
   58       2.062750273871e-10       2.655712945561e-14       5.033239506435e-14       1.251433998713e-16       3.578401253171e-11      -3.662241656356e-12      -1.044117039707e-14 
   59       2.084935735836e-10       2.797332107700e-14       7.562717655799e-15       1.295160623250e-16       3.441594723951e-11      -3.588936071425e-12      -1.074503148803e-14 
   60       2.108098536782e-10       2.943098152557e-14      -3.740255534524e-14       1.339636574831e-16       3.311248757832e-11      -3.515991849810e-12      -1.092019919088e-14 
   61       2.132236774029e-10       3.092924320899e-14      -8.449875417198e-14       1.384861011466e-16       3.187317151358e-11      -3.443829620596e-12      -1.098351182391e-14 
   62       2.157328781504e-10       3.246709200629e-14      -1.336506280268e-13       1.430833059515e-16       3.069588989882e-11      -3.372853944944e-12      -1.095531689393e-14 
   63       2.183331924322e-10       3.404336241446e-14      -1.847720231720e-13       1.477551815191e-16       2.957679096185e-11      -3.303451114453e-12      -1.085962991299e-14 
   64       2.210181393359e-10       3.565673269501e-14      -2.377655610210e-13       1.525016346053e-16       2.851018479075e-11      -3.235986949522e-12      -1.072429321508e-14 
   65       2.237809947832e-10       3.730590413777e-14      -2.925425884161e-13       1.573225820977e-16       2.749010843556e-11      -3.170748456278e-12      -1.057549515846e-14 
   66       2.266214710316e-10       3.899019388048e-14      -3.490886623571e-13       1.622179928697e-16       2.651562100783e-11      -3.107759381206e-12      -1.041962188646e-14 
   67       2.295402404747e-10       4.070905933313e-14      -4.074113993402e-13       1.671878550839e-16       2.558646256502e-11      -3.046921543132e-12      -1.025783462679e-14 
   68       2.325369048767e-10       4.246192543024e-14      -4.675216674824e-13       1.722321646268e-16       2.470144430109e-11      -2.988063826303e-12      -1.009137120559e-14 
   69       2.356099334259e-10       4.424818492757e-14      -5.294338316672e-13       1.773509256180e-16       2.385839948333e-11      -2.930938408353e-12      -9.921547112599e-15 
   70       2.387566007883e-10       4.606719869883e-14      -5.931659986891e-13       1.825441509188e-16       2.305413438924e-11      -2.875216988284e-12      -9.749756566477e-15 
   71       2.419729251609e-10       4.791829603236e-14      -6.587402623992e-13       1.878118626415e-16       2.228437924343e-11      -2.820487014430e-12      -9.577473580004e-15 
   72       2.452548716920e-10       4.980069533142e-14      -7.261700401214e-13       1.931540993920e-16       2.154488346559e-11      -2.766361437267e-12      -9.406286569508e-15 
   73       2.486023678273e-10       5.171324793331e-14      -7.954187230053e-13       1.985709384740e-16       2.083505383206e-11      -2.712840739604e-12      -9.238007506835e-15 
   74       2.520159503505e-10       5.365464542359e-14      -8.664334946718e-13       2.040624788868e-16       2.015492924590e-11      -2.660013904970e-12      -9.074585741711e-15 
   75       2.554955358138e-10       5.562349338081e-14      -9.391574879522e-13       2.096288356209e-16       1.950407575496e-11      -2.607949889991e-12      -8.918078113945e-15 
   76       2.590403874810e-10       5.761830985597e-14      -1.013529735313e-12       2.152701403209e-16       1.888156361463e-11      -2.556696444253e-12      -8.770650784532e-15 
   77       2.626490822708e-10       5.963752385193e-14      -1.089485119281e-12       2.209865419480e-16       1.828594435049e-11      -2.506278930168e-12      -8.634581066741e-15 
   78       2.663194776997e-10       6.167947380285e-14      -1.166954322871e-12       2.267782074433e-16       1.771522782108e-11      -2.456699142838e-12      -8.512259257219e-15 
   79       2.700486788251e-10       6.374240605366e-14      -1.245863780005e-12       2.326453223900e-16       1.716685928051e-11      -2.407934129918e-12      -8.406190467081e-15 
   80       2.738338353320e-10       6.582454938877e-14      -1.326141718522e-12       2.385880850571e-16       1.663835224306e-11      -2.359960576869e-12      -8.318258241589e-15 
   81       2.776747649332e-10       6.792435686925e-14      -1.407737606841e-12       2.446066858794e-16       1.612936411180e-11      -2.312835436061e-12      -8.247364114712e-15 
   82       2.815717273514e-10       7.004030341539e-14      -1.490606009834e-12       2.507013256066e-16       1.563994083138e-11      -2.266627211405e-12      -8.191379548716e-15 
   83       2.855246172314e-10       7.217081337720e-14      -1.574700858486e-12       2.568722221389e-16       1.516988247622e-11      -2.221390940862e-12      -8.147836079055e-15 
   84       2.895329464556e-10       7.431426042218e-14      -1.659975513148e-12       2.631196110667e-16       1.471873245773e-11      -2.177167489742e-12      -8.113913474886e-15 
   85       2.935958264606e-10       7.646896742308e-14      -1.746382826784e-12       2.694437462109e-16       1.428576673143e-11      -2.133982843999e-12      -8.086427899581e-15 
   86       2.977119505535e-10       7.863320634567e-14      -1.833875208228e-12       2.758449001632e-16       1.386998300419e-11      -2.091847403531e-12      -8.061820071243e-15 
   87       3.018795762275e-10       8.080519813647e-14      -1.922404685427e-12       2.823233648263e-16       1.347008994134e-11      -2.050755275474e-12      -8.036143423221e-15 
   88       3.060965074789e-10       8.298311261051e-14      -2.011922968700e-12       2.888794519539e-16       1.308449637392e-11      -2.010683567505e-12      -8.005052264622e-15 
   89       3.103606005523e-10       8.516508701908e-14      -2.102379026037e-12       2.955134881024e-16       1.271168925326e-11      -1.971602932307e-12      -7.964784286662e-15 
   90       3.146714106476e-10       8.734928533543e-14      -2.193711235248e-12       3.022257973994e-16       1.235145898792e-11      -1.933512637077e-12      -7.915310519496e-15 
   91       3.190287721485e-10       8.953384810549e-14      -2.285854111553e-12       3.090167170548e-16       1.200384733166e-11      -1.896409718842e-12      -7.857659986578e-15 
   92       3.234322884839e-10       9.171687476115e-14      -2.378740711545e-12       3.158866031589e-16       1.166877084770e-11      -1.860277692387e-12      -7.792972360779e-15 
   93       3.278813222856e-10       9.389642378780e-14      -2.472302659176e-12       3.228358311391e-16       1.134601593983e-11      -1.825086012108e-12      -7.722501021462e-15 
   94       3.323749855460e-10       9.607051289198e-14      -2.566470171727e-12       3.298647962162e-16       1.103523388349e-11      -1.790789533864e-12      -7.647616111573e-15 
   95       3.369121297758e-10       9.823711916898e-14      -2.661172085793e-12       3.369739138608e-16       1.073593585693e-11      -1.757327976836e-12      -7.569807594711e-15 
   96       3.414913361623e-10       1.003941792704e-13      -2.756335883257e-12       3.441636202500e-16       1.044748797228e-11      -1.724625385377e-12      -7.490688312218e-15 
   97       3.461109057268e-10       1.025395895719e-13      -2.851887717269e-12       3.514343727237e-16       1.016910630666e-11      -1.692589590870e-12      -7.411997040253e-15 
   98       3.507688494825e-10       1.046712063407e-13      -2.947752438227e-12       3.587866502412e-16       9.899851933321e-12      -1.661111673579e-12      -7.335601546878e-15 
   99       3.554632609462e-10       1.067868966440e-13      -3.043854558915e-12       3.662209552442e-16       9.638845486042e-12      -1.630094378383e-12      -7.263099696332e-15 
  100       3.601935151519e-10       1.088846989405e-13      -3.140121249760e-12       3.737378185614e-16       9.385956270402e-12      -1.599543117676e-12      -7.194551685634e-15 
  101       3.649592219732e-10       1.109626856528e-13      -3.236479818061e-12       3.813377960500e-16       9.141201982568e-12      -1.569486918496e-12      -7.129573083981e-15 
  102       3.697598537791e-10       1.130189152278e-13      -3.332856843567e-12       3.890214677182e-16       8.904535605075e-12      -1.539950433761e-12      -7.067718973570e-15 
  103       3.745947402264e-10       1.150514329203e-13      -3.429178215837e-12       3.967894381990e-16       8.675843098940e-12      -1.510953755084e-12      -7.008482134525e-15 
  104       3.794630630521e-10       1.170582715748e-13      -3.525369171600e-12       4.046423372236e-16       8.454941095784e-12      -1.482512225580e-12      -6.951291229817e-15 
  105       3.843638508655e-10       1.190374524086e-13      -3.621354332121e-12       4.125808200948e-16       8.241574589953e-12      -1.454636252680e-12      -6.895508990199e-15 
  106       3.892959739414e-10       1.209869857946e-13      -3.717057740563e-12       4.206055681607e-16       8.035414630637e-12      -1.427331120937e-12      -6.840430399124e-15 
  107       3.942581390116e-10       1.229048720433e-13      -3.812402899342e-12       4.287172892883e-16       7.836056013986e-12      -1.400596804839e-12      -6.785280877673e-15 
