# dimensionless total [l(l+1)/2pi] C_l's
# for l=2 to 3000, i.e. number of multipoles equal to 2999
#
# -> if you prefer output in CAMB/HealPix/LensPix units/order, set 'format' to 'camb' in input file
# -> if you don't want to see such a header, set 'headers' to 'no' in input file
# -> for CMB lensing (phi), these are C_l^phi-phi for the lensing potential.
#    Remember the conversion factors:
#    C_l^dd (deflection) = l(l+1) C_l^phi-phi
#    C_l^gg (shear/convergence) = 1/4 (l(l+1))^2 C_l^phi-phi
#
# 1:l     2:TT                     3:EE                     4:TE                     5:BB                     6:phiphi                 7:TPhi                   8:Ephi               
    2       1.368453779285e-10       4.156483086590e-15       3.514295540683e-13       0.000000000000e+00       8.244751573559e-09       4.478297881990e-10      -1.835998492964e-12 
    3       1.295325497204e-10       5.336164665228e-15       3.947041751438e-13       0.000000000000e+00       5.059131172076e-09       3.164208952122e-10      -1.391810863340e-12 
    4       1.226136750848e-10       4.624226599819e-15       3.690655526667e-13       0.000000000000e+00       3.499677454546e-09       2.388229888073e-10      -9.125739605887e-13 
    5       1.174280994239e-10       3.090702680645e-15       3.143566733577e-13       0.000000000000e+00       2.601563978984e-09       1.880299677477e-10      -5.085546105106e-13 
    6       1.138661732451e-10       1.730466244616e-15       2.532521621185e-13       0.000000000000e+00       2.025308427917e-09       1.525116795985e-10      -2.103446534901e-13 
    7       1.115987918430e-10       9.346750006223e-16       1.988989406679e-13       0.000000000000e+00       1.629077767993e-09       1.265711670398e-10      -1.967595124248e-14 
    8       1.102711000410e-10       6.017941790169e-16       1.570665920296e-13       0.000000000000e+00       1.342929623533e-09       1.069521185701e-10       7.806596100544e-14 
    9       1.096526579681e-10       4.825721883056e-16       1.290196874252e-13       0.000000000000e+00       1.128383199890e-09       9.166465526898e-11       1.058975418150e-13 
   10       1.095555489292e-10       4.112881546432e-16       1.134342153760e-13       0.000000000000e+00       9.626851247979e-10       7.950980339289e-11       8.942946540790e-14 
   11       1.098621320288e-10       3.452827119835e-16       1.077078712003e-13       0.000000000000e+00       8.240542535799e-10       7.048722111742e-11       5.256012530565e-14 
   12       1.105177534212e-10       2.999515667272e-16       1.088383017067e-13       0.000000000000e+00       7.198471029567e-10       6.233219761232e-11       1.299400956816e-14 
   13       1.114022675094e-10       2.867496289983e-16       1.140812215541e-13       0.000000000000e+00       6.343160306253e-10       5.558666642428e-11      -1.749731273713e-14 
   14       1.124381173312e-10       2.980239706647e-16       1.214333517157e-13       0.000000000000e+00       5.631691534346e-10       4.969556007363e-11      -3.431341434245e-14 
   15       1.136512584239e-10       3.218915333743e-16       1.296304703726e-13       0.000000000000e+00       5.032983899887e-10       4.474055561306e-11      -3.760467798635e-14 
   16       1.150497824369e-10       3.556359246174e-16       1.379512189044e-13       0.000000000000e+00       4.524046018059e-10       4.054790313340e-11      -3.122915192818e-14 
   17       1.165034771748e-10       4.046001818398e-16       1.462722039678e-13       0.000000000000e+00       4.087547999848e-10       3.693521119676e-11      -2.032571829841e-14 
   18       1.180596946544e-10       4.742648843923e-16       1.547664622005e-13       0.000000000000e+00       3.708809250452e-10       3.369563125103e-11      -9.873591632124e-15 
   19       1.197337815657e-10       5.651311440026e-16       1.636304235044e-13       0.000000000000e+00       3.381677046689e-10       3.082463915334e-11      -2.472029874041e-15 
   20       1.214564824848e-10       6.753778540689e-16       1.730269785276e-13       0.000000000000e+00       3.093645480119e-10       2.832095460599e-11       2.067149876112e-16 
   21       1.232416470311e-10       8.042633975159e-16       1.829413400319e-13       0.000000000000e+00       2.840159382923e-10       2.614663954974e-11      -1.300685392276e-15 
   22       1.250970842489e-10       9.511184506727e-16       1.932205794730e-13       0.000000000000e+00       2.615091665351e-10       2.421212342381e-11      -5.310617463205e-15 
   23       1.270126461222e-10       1.116202404180e-15       2.035318380832e-13       0.000000000000e+00       2.415412978312e-10       2.247280805281e-11      -1.014262081851e-14 
   24       1.289542777339e-10       1.299884242434e-15       2.134374582718e-13       0.000000000000e+00       2.236547776246e-10       2.088040921126e-11      -1.399735297288e-14 
   25       1.309334498053e-10       1.502283770315e-15       2.226244121945e-13       0.000000000000e+00       2.076057811264e-10       1.943284625345e-11      -1.603939470144e-14 
   26       1.329615872349e-10       1.723598399781e-15       2.308291921745e-13       0.000000000000e+00       1.930790159739e-10       1.812929245646e-11      -1.588082136875e-14 
   27       1.350462409118e-10       1.965415293773e-15       2.379771979822e-13       0.000000000000e+00       1.799984420535e-10       1.696355723099e-11      -1.398108220969e-14 
   28       1.371755472677e-10       2.229990636266e-15       2.440752571436e-13       0.000000000000e+00       1.682047855565e-10       1.591179499978e-11      -1.128296350315e-14 
   29       1.393237239651e-10       2.519623064320e-15       2.491635528753e-13       0.000000000000e+00       1.574107046246e-10       1.493905763557e-11      -8.851405285076e-15 
   30       1.414978822565e-10       2.835478902766e-15       2.533028333608e-13       0.000000000000e+00       1.475561963320e-10       1.404401597327e-11      -7.104929146335e-15 
   31       1.437062274401e-10       3.178295143244e-15       2.565871693965e-13       0.000000000000e+00       1.385676664802e-10       1.322973891206e-11      -6.292400686676e-15 
   32       1.459478977657e-10       3.548751486977e-15       2.590994963849e-13       0.000000000000e+00       1.303023545667e-10       1.249211290941e-11      -6.571825736146e-15 
   33       1.482251013890e-10       3.947774583932e-15       2.607344513692e-13       0.000000000000e+00       1.227149316474e-10       1.182245316537e-11      -7.597961867106e-15 
   34       1.505331091866e-10       4.376334890086e-15       2.613081216089e-13       0.000000000000e+00       1.157378980401e-10       1.120440650178e-11      -8.768290979342e-15 
   35       1.528614364785e-10       4.835353712875e-15       2.606318521854e-13       0.000000000000e+00       1.092670413749e-10       1.061872881812e-11      -9.474577698507e-15 
   36       1.552132593315e-10       5.325668875281e-15       2.586176953502e-13       0.000000000000e+00       1.032853865018e-10       1.006502494201e-11      -9.643404793087e-15 
   37       1.575911613620e-10       5.848049616304e-15       2.552079824303e-13       0.000000000000e+00       9.777403052657e-11       9.546792171540e-12      -9.378750636432e-15 
   38       1.599910480342e-10       6.403199547752e-15       2.503475598124e-13       0.000000000000e+00       9.267467492274e-11       9.065365551349e-12      -8.822391923346e-15 
   39       1.624059297736e-10       6.991771558502e-15       2.439946639130e-13       0.000000000000e+00       8.791061331817e-11       8.620160889557e-12      -8.136325844620e-15 
   40       1.648406199995e-10       7.614430337724e-15       2.361576901149e-13       0.000000000000e+00       8.346714111533e-11       8.210068374092e-12      -7.436011589454e-15 
   41       1.673008121280e-10       8.271803120179e-15       2.268711797482e-13       0.000000000000e+00       7.933248183908e-11       7.832145340401e-12      -6.839055627689e-15 
   42       1.697886010206e-10       8.964458546973e-15       2.161870955300e-13       0.000000000000e+00       7.547379765234e-11       7.480988382455e-12      -6.484859467548e-15 
   43       1.723037525359e-10       9.692938986223e-15       2.041516550159e-13       0.000000000000e+00       7.184931080622e-11       7.150392036182e-12      -6.492170808863e-15 
   44       1.748489264557e-10       1.045787742704e-14       1.907249380674e-13       0.000000000000e+00       6.845337574338e-11       6.839410830580e-12      -6.812959589859e-15 
   45       1.774254123678e-10       1.125991142018e-14       1.758378213803e-13       0.000000000000e+00       6.528247844404e-11       6.547854433773e-12      -7.335086568799e-15 
   46       1.800313214337e-10       1.209964955661e-14       1.594133635374e-13       0.000000000000e+00       6.232170511723e-11       6.274518224445e-12      -7.920567672837e-15 
   47       1.826612950258e-10       1.297767039605e-14       1.413662330333e-13       0.000000000000e+00       5.954385372274e-11       6.017103390716e-12      -8.404059261906e-15 
   48       1.853090271386e-10       1.389447056968e-14       1.216163826938e-13       0.000000000000e+00       5.691779656734e-11       5.772943809827e-12      -8.638461874217e-15 
   49       1.879763522716e-10       1.485029428914e-14       1.001359656834e-13       0.000000000000e+00       5.443842874058e-11       5.541615416428e-12      -8.650467095502e-15 
   50       1.906662187158e-10       1.584525393731e-14       7.691466182763e-14       0.000000000000e+00       5.210363527143e-11       5.322925104149e-12      -8.526254960899e-15 
   51       1.933799542800e-10       1.687937312366e-14       5.194673695639e-14       0.000000000000e+00       4.990537089295e-11       5.116130379562e-12      -8.369071081317e-15 
   52       1.961171184885e-10       1.795258301961e-14       2.523119778528e-14       0.000000000000e+00       4.782924355782e-11       4.919900623333e-12      -8.300115911493e-15 
   53       1.988766492873e-10       1.906479174553e-14      -3.232938915558e-15       0.000000000000e+00       4.585902724531e-11       4.732771831064e-12      -8.426991965131e-15 
   54       2.016609895645e-10       2.021612191409e-14      -3.346262351006e-14       0.000000000000e+00       4.399252143849e-11       4.554737288475e-12      -8.737473096922e-15 
   55       2.044727641359e-10       2.140672778257e-14      -6.547863479140e-14       0.000000000000e+00       4.222904392549e-11       4.385998410717e-12      -9.179968617363e-15 
   56       2.073134866955e-10       2.263672695976e-14      -9.930110273017e-14       0.000000000000e+00       4.056465339077e-11       4.226489424019e-12      -9.693113915800e-15 
   57       2.101834662897e-10       2.390619980427e-14      -1.349495584446e-13       0.000000000000e+00       3.899193960956e-11       4.075859317819e-12      -1.020529947469e-14 
   58       2.130817137917e-10       2.521518882291e-14      -1.724429841709e-13       0.000000000000e+00       3.749981364240e-11       3.933453796893e-12      -1.063419988387e-14 
   59       2.160067745966e-10       2.656361570455e-14      -2.117937872624e-13       0.000000000000e+00       3.607655695866e-11       3.798495450746e-12      -1.090688342252e-14 
   60       2.189596649355e-10       2.795101128906e-14      -2.529879745257e-13       0.000000000000e+00       3.472027219562e-11       3.670714111361e-12      -1.102666394759e-14 
   61       2.219414533802e-10       2.937672171431e-14      -2.960004539080e-13       0.000000000000e+00       3.343049288861e-11       3.549831246401e-12      -1.102096919476e-14 
   62       2.249523337181e-10       3.083998194250e-14      -3.408005528417e-13       0.000000000000e+00       3.220504062938e-11       3.435363515812e-12      -1.092234728179e-14 
   63       2.279915628242e-10       3.233991236646e-14      -3.873518622494e-13       0.000000000000e+00       3.103992573272e-11       3.326611443173e-12      -1.076869336911e-14 
   64       2.310573985331e-10       3.387551541596e-14      -4.356120805487e-13       0.000000000000e+00       2.992924790314e-11       3.222648087057e-12      -1.060347632048e-14 
   65       2.341480596205e-10       3.544578223279e-14      -4.855421497798e-13       0.000000000000e+00       2.886682257590e-11       3.122562421810e-12      -1.046589254111e-14 
   66       2.372649816018e-10       3.705004657702e-14      -5.371362632663e-13       0.000000000000e+00       2.785168338820e-11       3.026274834855e-12      -1.035839470685e-14 
   67       2.404101414329e-10       3.868770002688e-14      -5.903979529796e-13       0.000000000000e+00       2.688357091189e-11       2.933874596920e-12      -1.027267103947e-14 
   68       2.435850633316e-10       4.035808821473e-14      -6.453314601689e-13       0.000000000000e+00       2.596125969818e-11       2.845376266903e-12      -1.019905725442e-14 
   69       2.467907852396e-10       4.206051051219e-14      -7.019418392857e-13       0.000000000000e+00       2.508250721493e-11       2.760715487969e-12      -1.012648146412e-14 
   70       2.500278252848e-10       4.379421971531e-14      -7.602350619088e-13       0.000000000000e+00       2.424400278388e-11       2.679744783651e-12      -1.004240908139e-14 
   71       2.532961482436e-10       4.555842172975e-14      -8.202181206682e-13       0.000000000000e+00       2.344131651797e-11       2.602229353948e-12      -9.932787722710e-15 
   72       2.565955463569e-10       4.735223686470e-14      -8.818912696872e-13       0.000000000000e+00       2.267003795577e-11       2.527913572309e-12      -9.785907345392e-15 
   73       2.599269409326e-10       4.917457581294e-14      -9.452227906143e-13       0.000000000000e+00       2.192955846760e-11       2.456744595715e-12      -9.604960904049e-15 
   74       2.632912711406e-10       5.102423918538e-14      -1.010169548189e-12       0.000000000000e+00       2.121992598404e-11       2.388684279277e-12      -9.397806368649e-15 
   75       2.666890781283e-10       5.289995262189e-14      -1.076684350235e-12       0.000000000000e+00       2.054069613429e-11       2.323639732731e-12      -9.173298826567e-15 
   76       2.701204809426e-10       5.480036559996e-14      -1.144715872051e-12       0.000000000000e+00       1.989090834543e-11       2.261460730714e-12      -8.941324774835e-15 
   77       2.735851524523e-10       5.672405024334e-14      -1.214208580807e-12       0.000000000000e+00       1.926906194173e-11       2.201937123036e-12      -8.712836412398e-15 
   78       2.770822952704e-10       5.866950013069e-14      -1.285102659935e-12       0.000000000000e+00       1.867309224396e-11       2.144796244957e-12      -8.499885932360e-15 
   79       2.806106176764e-10       6.063512910424e-14      -1.357333933525e-12       0.000000000000e+00       1.810034666872e-11       2.089700327453e-12      -8.315659814242e-15 
   80       2.841688661316e-10       6.261932374128e-14      -1.430839584540e-12       0.000000000000e+00       1.754824316705e-11       2.036329895415e-12      -8.171373135621e-15 
   81       2.877575822982e-10       6.462061388386e-14      -1.505576619463e-12       0.000000000000e+00       1.701642980965e-11       1.984656339269e-12      -8.066255926426e-15 
   82       2.913776086291e-10       6.663752968815e-14      -1.581506487325e-12       0.000000000000e+00       1.650495837306e-11       1.934712173820e-12      -7.995882243308e-15 
   83       2.950295453189e-10       6.866855039745e-14      -1.658589601892e-12       0.000000000000e+00       1.601362422076e-11       1.886508272758e-12      -7.955132203067e-15 
   84       2.987137365334e-10       7.071210414456e-14      -1.736785373353e-12       0.000000000000e+00       1.554195503838e-11       1.840032871293e-12      -7.938168127118e-15 
   85       3.024302566392e-10       7.276656775422e-14      -1.816052240001e-12       0.000000000000e+00       1.508919956890e-11       1.795250568803e-12      -7.938410685949e-15 
   86       3.061788964338e-10       7.483026654551e-14      -1.896347699924e-12       0.000000000000e+00       1.465431634789e-11       1.752101331473e-12      -7.948515043590e-15 
   87       3.099591493742e-10       7.690147413422e-14      -1.977628342692e-12       0.000000000000e+00       1.423596243873e-11       1.710499494936e-12      -7.960347002071e-15 
   88       3.137701978074e-10       7.897841223532e-14      -2.059849881037e-12       0.000000000000e+00       1.383248216783e-11       1.670332766918e-12      -7.964959145887e-15 
   89       3.176112398321e-10       8.105927465074e-14      -2.142965463215e-12       0.000000000000e+00       1.344230123432e-11       1.631490444537e-12      -7.954496500213e-15 
   90       3.214825586637e-10       8.314230397604e-14      -2.226920237608e-12       0.000000000000e+00       1.306520444500e-11       1.593955312997e-12      -7.928308095502e-15 
   91       3.253845964277e-10       8.522572661849e-14      -2.311655989896e-12       0.000000000000e+00       1.270123859255e-11       1.557724392335e-12      -7.887754616685e-15 
   92       3.293176199137e-10       8.730772984517e-14      -2.397112792329e-12       0.000000000000e+00       1.235031980474e-11       1.522780454207e-12      -7.834369214838e-15 
   93       3.332817119086e-10       8.938646194780e-14      -2.483229009656e-12       0.000000000000e+00       1.201222835265e-11       1.489091462210e-12      -7.769862558225e-15 
   94       3.372767625289e-10       9.146003240736e-14      -2.569941305053e-12       0.000000000000e+00       1.168660345895e-11       1.456610012190e-12      -7.696127883327e-15 
   95       3.413024605536e-10       9.352651205893e-14      -2.657184646053e-12       0.000000000000e+00       1.137293810609e-11       1.425272772560e-12      -7.615246045883e-15 
   96       3.453582847570e-10       9.558393325635e-14      -2.744892310474e-12       0.000000000000e+00       1.107057384463e-11       1.394999924617e-12      -7.529490571923e-15 
   97       3.494434952411e-10       9.763029003698e-14      -2.832995892344e-12       0.000000000000e+00       1.077869560143e-11       1.365694602853e-12      -7.441332708804e-15 
   98       3.535571247685e-10       9.966353828644e-14      -2.921425307834e-12       0.000000000000e+00       1.049632648788e-11       1.337242335269e-12      -7.353446476249e-15 
   99       3.576982221673e-10       1.016816428857e-13      -3.010110065439e-12       0.000000000000e+00       1.022255160029e-11       1.309537603566e-12      -7.268188263131e-15 
  100       3.618666406193e-10       1.036827264162e-13      -3.098983268998e-12       0.000000000000e+00       9.957236813096e-12       1.282569026072e-12      -7.185940593877e-15 
  101       3.660623454444e-10       1.056649419215e-13      -3.187978195318e-12       0.000000000000e+00       9.700402625403e-12       1.256345256645e-12      -7.106542062802e-15 
  102       3.702851664481e-10       1.076264285290e-13      -3.277027101489e-12       0.000000000000e+00       9.452001866257e-12       1.230868713153e-12      -7.029790558237e-15 
  103       3.745347923099e-10       1.095653121840e-13      -3.366061246133e-12       0.000000000000e+00       9.211917278536e-12       1.206135346525e-12      -6.955441944415e-15 
  104       3.788107649714e-10       1.114797063842e-13      -3.455010910658e-12       0.000000000000e+00       8.979959102870e-12       1.182134409780e-12      -6.883208743371e-15 
  105       3.831124740242e-10       1.133677129138e-13      -3.543805420513e-12       0.000000000000e+00       8.755862661543e-12       1.158848227076e-12      -6.812758816830e-15 
  106       3.874391510985e-10       1.152274225773e-13      -3.632373166438e-12       0.000000000000e+00       8.539285942402e-12       1.136251962748e-12      -6.743714048105e-15 
  107       3.917898642506e-10       1.170569159346e-13      -3.720641625718e-12       0.000000000000e+00       8.329807182768e-12       1.114313390345e-12      -6.675649023989e-15 
