# Matter power spectrum P(k) at redshift z=0
# for k=1.04206e-05 to 5.30492 h/Mpc,
# number of wavenumbers equal to 556
#    1:k (h/Mpc)              2:P (Mpc/h)^3        
       1.042057218102e-05       4.664594563834e+01 
       2.326965112342e-05       1.013587754725e+02 
       3.616368416807e-05       1.551781921813e+02 
       4.913719191669e-05       2.086570813885e+02 
       6.222526306398e-05       2.621157653874e+02 
       7.546386573317e-05       3.157901768093e+02 
       8.889016871848e-05       3.698913184475e+02 
       1.025428768879e-04       4.246129018331e+02 
       1.164625850317e-04       4.801331346859e+02 
       1.306921544768e-04       5.366420714615e+02 
       1.452771167918e-04       5.943284768507e+02 
       1.602661088541e-04       6.533905245680e+02 
       1.757113433752e-04       7.140287211177e+02 
       1.916691186266e-04       7.764650617580e+02 
       2.082003704669e-04       8.409266625599e+02 
       2.253712687328e-04       9.076621871297e+02 
       2.432538584349e-04       9.769388112841e+02 
       2.619267438096e-04       1.049043833021e+03 
       2.814758098253e-04       1.124288715632e+03 
       3.019949709326e-04       1.203010796388e+03 
       3.235869302973e-04       1.285573864187e+03 
       3.463639240714e-04       1.372378096212e+03 
       3.704484140771e-04       1.463845656097e+03 
       3.959736783330e-04       1.560437761337e+03 
       4.230842321551e-04       1.662649510804e+03 
       4.519359935994e-04       1.771004865924e+03 
       4.826960870599e-04       1.886061300936e+03 
       5.155421603068e-04       2.008396550884e+03 
       5.506610770795e-04       2.138610826595e+03 
       5.882468451648e-04       2.277309356920e+03 
       6.284976558480e-04       2.425095653661e+03 
       6.716119524910e-04       2.582549697766e+03 
       7.177835202431e-04       2.750210145526e+03 
       7.671956976726e-04       2.928554955382e+03 
       8.200149485734e-04       3.117971336016e+03 
       8.763841814427e-04       3.318734852110e+03 
       9.364163367208e-04       3.530985317694e+03 
       1.000188842063e-03       3.754722430023e+03 
       1.067739530145e-03       3.989770028494e+03 
       1.139064503247e-03       4.235795595649e+03 
       1.214118221432e-03       4.492311615220e+03 
       1.292815822649e-03       4.758683290489e+03 
       1.375037409677e-03       5.034134002338e+03 
       1.460633819123e-03       5.317812235193e+03 
       1.549433263665e-03       5.608839933299e+03 
       1.641248223778e-03       5.906261244369e+03 
       1.735882044008e-03       6.209132639673e+03 
       1.833134827638e-03       6.516511245641e+03 
       1.932808383275e-03       6.827495690765e+03 
       2.034710125338e-03       7.141228566262e+03 
       2.138655947732e-03       7.456905739713e+03 
       2.244472169001e-03       7.773789633532e+03 
       2.351996690227e-03       8.091203922209e+03 
       2.461079521249e-03       8.408538382532e+03 
       2.571582825440e-03       8.725242441603e+03 
       2.683380616479e-03       9.040825467373e+03 
       2.796358218588e-03       9.354853512078e+03 
       2.910411578978e-03       9.666940947206e+03 
       3.025446500195e-03       9.976750330481e+03 
       3.141377842005e-03       1.028398509987e+04 
       3.258128727724e-03       1.058838799150e+04 
       3.375629778368e-03       1.088973581225e+04 
       3.493818389279e-03       1.118783248549e+04 
       3.612638057479e-03       1.148251247978e+04 
       3.732037763470e-03       1.177363404815e+04 
       3.851971408043e-03       1.206107400219e+04 
       3.972397302633e-03       1.234473292292e+04 
       4.093277710446e-03       1.262452373285e+04 
       4.214578434858e-03       1.290037813196e+04 
       4.336268451247e-03       1.317223824555e+04 
       4.458319578333e-03       1.344005974899e+04 
       4.580706185188e-03       1.370380956206e+04 
       4.703404930262e-03       1.396345384496e+04 
       4.826394529030e-03       1.421893359306e+04 
       4.949655547142e-03       1.447034829616e+04 
       5.073170216248e-03       1.471761464365e+04 
       5.196922269937e-03       1.496071400514e+04 
       5.320896797515e-03       1.519981031684e+04 
       5.445080113588e-03       1.543414722434e+04 
       5.569459641634e-03       1.566560859007e+04 
       5.694023809978e-03       1.589235141994e+04 
       5.818761958739e-03       1.611512286747e+04 
       5.943664256511e-03       1.633306687025e+04 
       6.068721625672e-03       1.654764650207e+04 
       6.193925675349e-03       1.675815055307e+04 
       6.319268641182e-03       1.696542615153e+04 
       6.444743331135e-03       1.716860964151e+04 
       6.570343076681e-03       1.736639789180e+04 
       6.696061688782e-03       1.756245526504e+04 
       6.821893418135e-03       1.775322425486e+04 
       6.947832919238e-03       1.794080801549e+04 
       7.073875217858e-03       1.812434978508e+04 
       7.200015681550e-03       1.830490528249e+04 
       7.326249992911e-03       1.848077591736e+04 
       7.452574125278e-03       1.865319149770e+04 
       7.578984320627e-03       1.882203801715e+04 
       7.705477069457e-03       1.898760332284e+04 
       7.832049092443e-03       1.914946949728e+04 
       7.958697323705e-03       1.930781811404e+04 
       8.085418895512e-03       1.946311645848e+04 
       8.212211124305e-03       1.961468332520e+04 
       8.339071497896e-03       1.976295994647e+04 
       8.465997663740e-03       1.990770457160e+04 
       8.592987418178e-03       2.004914316510e+04 
       8.720038696556e-03       2.018709255394e+04 
       8.847149564156e-03       2.032168969441e+04 
       8.974318207839e-03       2.045428605580e+04 
       9.101542928364e-03       2.058224120302e+04 
       9.228822133307e-03       2.070794227374e+04 
       9.356154330527e-03       2.083041497573e+04 
       9.483538122139e-03       2.094887073813e+04 
       9.610972198953e-03       2.106577484245e+04 
       9.738455335323e-03       2.117928748307e+04 
       9.865986384394e-03       2.128919475318e+04 
       9.993564273694e-03       2.139655275442e+04 
       1.012118800106e-02       2.150094088429e+04 
       1.024885663085e-02       2.160297502374e+04 
       1.037656929045e-02       2.170092637704e+04 
       1.050432516701e-02       2.179731222660e+04 
       1.063212350445e-02       2.189052438798e+04 
       1.075996360063e-02       2.198076041689e+04 
       1.088784480475e-02       2.206903447496e+04 
       1.101576651498e-02       2.215369030422e+04 
       1.114372817613e-02       2.223648738276e+04 
       1.127172927762e-02       2.231612982261e+04 
       1.139976935154e-02       2.239367581493e+04 
       1.152784797079e-02       2.246825439464e+04 
       1.165596474745e-02       2.254045278481e+04 
       1.178411933118e-02       2.260979365343e+04 
       1.191231140780e-02       2.267757852448e+04 
       1.204054069789e-02       2.274306772835e+04 
       1.216880695557e-02       2.280500051232e+04 
       1.229710996733e-02       2.286573289055e+04 
       1.242544955090e-02       2.292348815471e+04 
       1.255382555428e-02       2.297794617079e+04 
       1.268223785481e-02       2.303191538795e+04 
       1.281068635825e-02       2.308299066525e+04 
       1.293917099803e-02       2.313121489189e+04 
       1.306769173445e-02       2.317827845365e+04 
       1.319624855405e-02       2.322185992852e+04 
       1.332484146892e-02       2.326579832038e+04 
       1.345347051615e-02       2.330467342569e+04 
       1.358213575726e-02       2.334416253474e+04 
       1.371083727772e-02       2.337914275565e+04 
       1.383957518651e-02       2.341310382001e+04 
       1.396834961569e-02       2.344477621242e+04 
       1.409716072003e-02       2.347552470259e+04 
       1.422600867665e-02       2.350285408412e+04 
       1.435489368476e-02       2.352876249846e+04 
       1.448381596533e-02       2.355327326767e+04 
       1.461277576092e-02       2.357554559658e+04 
       1.474177333540e-02       2.359561875256e+04 
       1.487080897380e-02       2.361462129139e+04 
       1.499988298214e-02       2.363091483673e+04 
       1.512899568732e-02       2.364736667943e+04 
       1.525814743700e-02       2.366067249798e+04 
       1.538733859953e-02       2.367115621535e+04 
       1.551656956385e-02       2.368115523159e+04 
       1.564584073954e-02       2.368858677321e+04 
       1.577515255670e-02       2.369542637609e+04 
       1.590450546606e-02       2.370010283753e+04 
       1.603389993894e-02       2.370291270303e+04 
       1.616333646732e-02       2.370439626673e+04 
       1.629281556390e-02       2.370445196420e+04 
       1.642233776221e-02       2.370259160771e+04 
       1.655190361669e-02       2.370051452675e+04 
       1.668151370282e-02       2.369471821272e+04 
       1.681116861728e-02       2.368876763947e+04 
       1.694086897806e-02       2.368114985227e+04 
       1.707061542472e-02       2.367199871332e+04 
       1.720040861847e-02       2.366202580167e+04 
       1.733024924251e-02       2.364936391625e+04 
       1.746013800215e-02       2.363648755831e+04 
       1.759007562510e-02       2.362139691127e+04 
       1.772006286174e-02       2.360530342706e+04 
       1.785010048539e-02       2.358835585489e+04 
       1.798018929257e-02       2.356913627995e+04 
       1.811033010338e-02       2.354924544121e+04 
       1.824052376175e-02       2.352767585092e+04 
       1.837077113585e-02       2.350537227447e+04 
       1.850107311840e-02       2.348171528577e+04 
       1.863143062710e-02       2.345712921453e+04 
       1.876184460497e-02       2.343067650976e+04 
       1.889231602079e-02       2.340277673754e+04 
       1.902284586954e-02       2.337437753795e+04 
       1.915343517282e-02       2.334471614206e+04 
       1.928408497933e-02       2.331490755403e+04 
       1.941479636536e-02       2.328203832061e+04 
       1.954557043527e-02       2.324908062263e+04 
       1.967640832202e-02       2.321491010137e+04 
       1.980731118771e-02       2.317975506597e+04 
       1.993828022414e-02       2.314330644897e+04 
       2.006931665338e-02       2.310673210967e+04 
       2.020042172836e-02       2.306884475779e+04 
       2.033159673351e-02       2.302937737926e+04 
       2.046284298537e-02       2.298924784431e+04 
       2.059416183327e-02       2.294852706734e+04 
       2.072555466002e-02       2.290652021912e+04 
       2.085702288256e-02       2.286369100546e+04 
       2.098856795276e-02       2.281989106292e+04 
       2.112019135811e-02       2.277530040929e+04 
       2.125189462254e-02       2.272993102545e+04 
       2.138367930717e-02       2.268355357567e+04 
       2.151554701117e-02       2.263654964146e+04 
       2.164749937262e-02       2.258872806884e+04 
       2.177953806933e-02       2.254006658361e+04 
       2.191166481979e-02       2.249049284739e+04 
       2.204388138412e-02       2.243993059165e+04 
       2.217618956496e-02       2.238878521336e+04 
       2.230859120855e-02       2.233706339094e+04 
       2.244108820567e-02       2.228451784031e+04 
       2.257368249275e-02       2.223134261715e+04 
       2.270637605295e-02       2.217722669821e+04 
       2.283917091726e-02       2.212296780892e+04 
       2.297206916568e-02       2.206772139528e+04 
       2.310507292839e-02       2.201182825201e+04 
       2.323818438700e-02       2.195519889747e+04 
       2.337140577581e-02       2.189858642491e+04 
       2.350473938315e-02       2.184018899334e+04 
       2.363818755266e-02       2.178180412903e+04 
       2.377175268477e-02       2.172339671128e+04 
       2.390543723807e-02       2.166354292144e+04 
       2.403924373083e-02       2.160439977439e+04 
       2.417317474253e-02       2.154297337113e+04 
       2.430723291542e-02       2.148192172695e+04 
       2.444142095618e-02       2.142115467187e+04 
       2.457574163760e-02       2.135857841471e+04 
       2.471019780028e-02       2.129591196481e+04 
       2.484479235450e-02       2.123307563275e+04 
       2.497952828202e-02       2.116993175767e+04 
       2.511440863801e-02       2.110563796506e+04 
       2.524943655303e-02       2.104135945543e+04 
       2.538461523512e-02       2.097647303369e+04 
       2.551994797184e-02       2.091135202475e+04 
       2.565543813252e-02       2.084572123098e+04 
       2.579108917051e-02       2.077974968177e+04 
       2.592690462549e-02       2.071335652863e+04 
       2.606288812592e-02       2.064653090430e+04 
       2.619904339155e-02       2.057956156318e+04 
       2.633537423597e-02       2.051203414732e+04 
       2.647188456935e-02       2.044446798848e+04 
       2.660857840116e-02       2.037632550328e+04 
       2.674545984307e-02       2.030747442782e+04 
       2.688253311194e-02       2.023921709018e+04 
       2.701980253287e-02       2.017025166588e+04 
       2.715727254244e-02       2.010117161697e+04 
       2.729494769197e-02       2.003128716355e+04 
       2.743283265099e-02       1.996162756375e+04 
       2.757093221079e-02       1.989157298216e+04 
       2.770925128811e-02       1.982131249643e+04 
       2.784779492897e-02       1.975076396200e+04 
       2.798656831264e-02       1.968010395968e+04 
       2.812557675579e-02       1.960896330077e+04 
       2.826482571672e-02       1.953795172917e+04 
       2.840432079988e-02       1.946693692425e+04 
       2.854406776042e-02       1.939524897725e+04 
       2.868407250906e-02       1.932315808746e+04 
       2.882434111702e-02       1.925142505480e+04 
       2.896487982126e-02       1.917980049364e+04 
       2.910569502983e-02       1.910721406293e+04 
       2.924679332755e-02       1.903460153721e+04 
       2.938818148178e-02       1.896239376539e+04 
       2.952986644856e-02       1.888977093724e+04 
       2.967185537893e-02       1.881708305484e+04 
       2.981415562554e-02       1.874383879897e+04 
       2.995677474950e-02       1.867131123461e+04 
       3.009972052758e-02       1.859811227697e+04 
       3.024300095968e-02       1.852492239205e+04 
       3.038662427662e-02       1.845175882751e+04 
       3.053059894830e-02       1.837814167499e+04 
       3.067493369218e-02       1.830490539764e+04 
       3.081963748218e-02       1.823122015977e+04 
       3.096471955791e-02       1.815792731164e+04 
       3.111018943440e-02       1.808377409140e+04 
       3.125605691220e-02       1.801036776440e+04 
       3.140233208800e-02       1.793671264419e+04 
       3.154902536572e-02       1.786302777380e+04 
       3.169614746808e-02       1.778949751932e+04 
       3.184370944881e-02       1.771568082090e+04 
       3.199172270533e-02       1.764155004878e+04 
       3.214019899213e-02       1.756766018936e+04 
       3.228915043476e-02       1.749413911222e+04 
       3.243858954453e-02       1.741992669182e+04 
       3.258852923389e-02       1.734605334895e+04 
       3.273898283262e-02       1.727213632916e+04 
       3.288996410486e-02       1.719859959431e+04 
       3.304148726696e-02       1.712461037681e+04 
       3.319356700626e-02       1.705070336606e+04 
       3.334621850089e-02       1.697664841171e+04 
       3.349945744058e-02       1.690300951471e+04 
       3.365330004854e-02       1.682910417344e+04 
       3.380776310462e-02       1.675569247963e+04 
       3.396286396965e-02       1.668161807214e+04 
       3.411862061110e-02       1.660795703844e+04 
       3.427505163025e-02       1.653428688666e+04 
       3.443217629083e-02       1.646066631703e+04 
       3.459001454926e-02       1.638701135213e+04 
       3.474858708671e-02       1.631347841870e+04 
       3.490791534296e-02       1.623986714085e+04 
       3.506802155224e-02       1.616653111611e+04 
       3.522892878128e-02       1.609298837573e+04 
       3.539066096952e-02       1.601970437444e+04 
       3.555324297194e-02       1.594648597280e+04 
       3.571670060433e-02       1.587316083268e+04 
       3.588106069155e-02       1.579978448827e+04 
       3.604635111876e-02       1.572639825250e+04 
       3.621260088590e-02       1.565352131116e+04 
       3.637984016575e-02       1.558097289204e+04 
       3.654810036579e-02       1.550770896883e+04 
       3.671741419408e-02       1.543446618753e+04 
       3.688781572972e-02       1.536192303653e+04 
       3.705934049795e-02       1.528905955651e+04 
       3.723202555053e-02       1.521605583038e+04 
       3.740590955172e-02       1.514355420657e+04 
       3.758103287036e-02       1.507078905868e+04 
       3.775743767855e-02       1.499813498244e+04 
       3.793516805749e-02       1.492578488573e+04 
       3.811427011127e-02       1.485327744231e+04 
       3.829479208903e-02       1.478070744059e+04 
       3.847678451653e-02       1.470820314248e+04 
       3.866030033781e-02       1.463635569333e+04 
       3.884539506797e-02       1.456363886838e+04 
       3.903212695812e-02       1.449140259428e+04 
       3.922055717360e-02       1.441916135097e+04 
       3.941074998689e-02       1.434739630803e+04 
       3.960277298649e-02       1.427478735094e+04 
       3.979669730355e-02       1.420284504858e+04 
       3.999259785801e-02       1.413053502435e+04 
       4.019055362619e-02       1.405885231204e+04 
       4.039064793222e-02       1.398631577281e+04 
       4.059296876580e-02       1.391425302376e+04 
       4.079760912922e-02       1.384212518589e+04 
       4.100466741681e-02       1.377003803279e+04 
       4.121424783056e-02       1.369791496169e+04 
       4.142646083607e-02       1.362580546432e+04 
       4.164142366350e-02       1.355393314404e+04 
       4.185926085895e-02       1.348128052509e+04 
       4.208010489239e-02       1.340908733203e+04 
       4.230409682914e-02       1.333681966446e+04 
       4.253138707286e-02       1.326439559443e+04 
       4.276213618943e-02       1.319203344807e+04 
       4.299651582211e-02       1.311948052055e+04 
       4.323470971049e-02       1.304685816105e+04 
       4.347691482711e-02       1.297402164676e+04 
       4.372334264845e-02       1.290124253738e+04 
       4.397422057936e-02       1.282829726305e+04 
       4.422979355318e-02       1.275565393989e+04 
       4.449032583397e-02       1.268189092048e+04 
       4.475610305132e-02       1.260849480152e+04 
       4.502743450429e-02       1.253454447895e+04 
       4.530465577708e-02       1.246097612878e+04 
       4.558813171754e-02       1.238655706689e+04 
       4.587825983897e-02       1.231264452633e+04 
       4.617547421776e-02       1.223734157955e+04 
       4.648024997382e-02       1.216236092887e+04 
       4.679310843848e-02       1.208685685977e+04 
       4.711462313673e-02       1.201106106529e+04 
       4.744542673780e-02       1.193441652367e+04 
       4.778621916177e-02       1.185756139790e+04 
       4.813777707257e-02       1.178018203758e+04 
       4.850096504050e-02       1.170211510165e+04 
       4.887674872438e-02       1.162394850165e+04 
       4.926621050782e-02       1.154430495471e+04 
       4.967056813129e-02       1.146421813529e+04 
       5.009119699784e-02       1.138337617016e+04 
       5.052965700368e-02       1.130154456883e+04 
       5.098772496627e-02       1.121846004065e+04 
       5.146743400414e-02       1.113427046408e+04 
       5.197112157982e-02       1.104897989756e+04 
       5.250148836704e-02       1.096185158825e+04 
       5.306167066023e-02       1.087325170836e+04 
       5.365532971716e-02       1.078256797334e+04 
       5.428676219834e-02       1.069000578332e+04 
       5.496103667465e-02       1.059432297058e+04 
       5.568416183614e-02       1.049580476286e+04 
       5.646329214238e-02       1.039327210224e+04 
       5.730697534282e-02       1.028631908435e+04 
       5.822544184871e-02       1.017432463355e+04 
       5.923092511196e-02       1.005555426482e+04 
       6.033797923594e-02       9.928199192251e+03 
       6.156371593844e-02       9.790309165453e+03 
