# Matter power spectrum P(k) at redshift z=0
# for k=1.04206e-05 to 5.30492 h/Mpc,
# number of wavenumbers equal to 556
#    1:k (h/Mpc)              2:P (Mpc/h)^3        
       1.042057218102e-05       3.422494683739e+01 
       2.326965112342e-05       7.436818591865e+01 
       3.616368416807e-05       1.138548603553e+02 
       4.913719191669e-05       1.530917196264e+02 
       6.222526306398e-05       1.923136296500e+02 
       7.546386573317e-05       2.316916158198e+02 
       8.889016871848e-05       2.713829034267e+02 
       1.025428768879e-04       3.115273583448e+02 
       1.164625850317e-04       3.522580246518e+02 
       1.306921544768e-04       3.937054132785e+02 
       1.452771167918e-04       4.360187824419e+02 
       1.602661088541e-04       4.793325994430e+02 
       1.757113433752e-04       5.238065400492e+02 
       1.916691186266e-04       5.695928411893e+02 
       2.082003704669e-04       6.168565578543e+02 
       2.253712687328e-04       6.657876348980e+02 
       2.432538584349e-04       7.165671641892e+02 
       2.619267438096e-04       7.694190793856e+02 
       2.814758098253e-04       8.245609685162e+02 
       3.019949709326e-04       8.822383424301e+02 
       3.235869302973e-04       9.427217218396e+02 
       3.463639240714e-04       1.006294925986e+03 
       3.704484140771e-04       1.073271377881e+03 
       3.959736783330e-04       1.143976607913e+03 
       4.230842321551e-04       1.218776336720e+03 
       4.519359935994e-04       1.298044947643e+03 
       4.826960870599e-04       1.382179940218e+03 
       5.155421603068e-04       1.471614479715e+03 
       5.506610770795e-04       1.566750707537e+03 
       5.882468451648e-04       1.668028983085e+03 
       6.284976558480e-04       1.775890935817e+03 
       6.716119524910e-04       1.890741733784e+03 
       7.177835202431e-04       2.012950665972e+03 
       7.671956976726e-04       2.142877203616e+03 
       8.200149485734e-04       2.280691968754e+03 
       8.763841814427e-04       2.426697323304e+03 
       9.364163367208e-04       2.580858249922e+03 
       1.000188842063e-03       2.743236453205e+03 
       1.067739530145e-03       2.913593139210e+03 
       1.139064503247e-03       3.091719287410e+03 
       1.214118221432e-03       3.277234729042e+03 
       1.292815822649e-03       3.469610599079e+03 
       1.375037409677e-03       3.668189830152e+03 
       1.460633819123e-03       3.872309024805e+03 
       1.549433263665e-03       4.081357948357e+03 
       1.641248223778e-03       4.294642330871e+03 
       1.735882044008e-03       4.511440230854e+03 
       1.833134827638e-03       4.731039503824e+03 
       1.932808383275e-03       4.952737031953e+03 
       2.034710125338e-03       5.175963450252e+03 
       2.138655947732e-03       5.400104156891e+03 
       2.244472169001e-03       5.624608958662e+03 
       2.351996690227e-03       5.848992612612e+03 
       2.461079521249e-03       6.072802931073e+03 
       2.571582825440e-03       6.295651033861e+03 
       2.683380616479e-03       6.517187906547e+03 
       2.796358218588e-03       6.737093769496e+03 
       2.910411578978e-03       6.955103355890e+03 
       3.025446500195e-03       7.170974527876e+03 
       3.141377842005e-03       7.384512261893e+03 
       3.258128727724e-03       7.595534471595e+03 
       3.375629778368e-03       7.803898425386e+03 
       3.493818389279e-03       8.009466020946e+03 
       3.612638057479e-03       8.212136116807e+03 
       3.732037763470e-03       8.411814077075e+03 
       3.851971408043e-03       8.608422300479e+03 
       3.972397302633e-03       8.801900013638e+03 
       4.093277710446e-03       8.992203861894e+03 
       4.214578434858e-03       9.179284354143e+03 
       4.336268451247e-03       9.363120852943e+03 
       4.458319578333e-03       9.543690592622e+03 
       4.580706185188e-03       9.720981998804e+03 
       4.703404930262e-03       9.894985112336e+03 
       4.826394529030e-03       1.006563948911e+04 
       4.949655547142e-03       1.023310333721e+04 
       5.073170216248e-03       1.039720685395e+04 
       5.196922269937e-03       1.055791136797e+04 
       5.320896797515e-03       1.071533584994e+04 
       5.445080113588e-03       1.086999038565e+04 
       5.569459641634e-03       1.102070121077e+04 
       5.694023809978e-03       1.116872826624e+04 
       5.818761958739e-03       1.131359922397e+04 
       5.943664256511e-03       1.145540855877e+04 
       6.068721625672e-03       1.159461691590e+04 
       6.193925675349e-03       1.172942305949e+04 
       6.319268641182e-03       1.186192985258e+04 
       6.444743331135e-03       1.199209392037e+04 
       6.570343076681e-03       1.211836322036e+04 
       6.696061688782e-03       1.224127168055e+04 
       6.821893418135e-03       1.236200826935e+04 
       6.947832919238e-03       1.247952876163e+04 
       7.073875217858e-03       1.259451933497e+04 
       7.200015681550e-03       1.270675596472e+04 
       7.326249992911e-03       1.281596788325e+04 
       7.452574125278e-03       1.292277663323e+04 
       7.578984320627e-03       1.302613394977e+04 
       7.705477069457e-03       1.312718279771e+04 
       7.832049092443e-03       1.322556395692e+04 
       7.958697323705e-03       1.332136402844e+04 
       8.085418895512e-03       1.341500440909e+04 
       8.212211124305e-03       1.350536697135e+04 
       8.339071497896e-03       1.359345228878e+04 
       8.465997663740e-03       1.368006487394e+04 
       8.592987418178e-03       1.376224443905e+04 
       8.720038696556e-03       1.384293337589e+04 
       8.847149564156e-03       1.392105824542e+04 
       8.974318207839e-03       1.399747395605e+04 
       9.101542928364e-03       1.407059283995e+04 
       9.228822133307e-03       1.414218495246e+04 
       9.356154330527e-03       1.421204935158e+04 
       9.483538122139e-03       1.427799719020e+04 
       9.610972198953e-03       1.434376313978e+04 
       9.738455335323e-03       1.440482155737e+04 
       9.865986384394e-03       1.446538983301e+04 
       9.993564273694e-03       1.452350453541e+04 
       1.012118800106e-02       1.457971738763e+04 
       1.024885663085e-02       1.463333300528e+04 
       1.037656929045e-02       1.468493266445e+04 
       1.050432516701e-02       1.473664183951e+04 
       1.063212350445e-02       1.478315641844e+04 
       1.075996360063e-02       1.482869816099e+04 
       1.088784480475e-02       1.487276194563e+04 
       1.101576651498e-02       1.491484481619e+04 
       1.114372817613e-02       1.495511816094e+04 
       1.127172927762e-02       1.499343670043e+04 
       1.139976935154e-02       1.503000930650e+04 
       1.152784797079e-02       1.506461504718e+04 
       1.165596474745e-02       1.509753710952e+04 
       1.178411933118e-02       1.512864228314e+04 
       1.191231140780e-02       1.515810453978e+04 
       1.204054069789e-02       1.518571555478e+04 
       1.216880695557e-02       1.521184795907e+04 
       1.229710996733e-02       1.523617561683e+04 
       1.242544955090e-02       1.525889330909e+04 
       1.255382555428e-02       1.527999854263e+04 
       1.268223785481e-02       1.529943562397e+04 
       1.281068635825e-02       1.531730995772e+04 
       1.293917099803e-02       1.533365852759e+04 
       1.306769173445e-02       1.534855471309e+04 
       1.319624855405e-02       1.536188739502e+04 
       1.332484146892e-02       1.537417967513e+04 
       1.345347051615e-02       1.538481535835e+04 
       1.358213575726e-02       1.539354394401e+04 
       1.371083727772e-02       1.540064617540e+04 
       1.383957518651e-02       1.540676022855e+04 
       1.396834961569e-02       1.541147183436e+04 
       1.409716072003e-02       1.541510258395e+04 
       1.422600867665e-02       1.541829844296e+04 
       1.435489368476e-02       1.541767220466e+04 
       1.448381596533e-02       1.541738131823e+04 
       1.461277576092e-02       1.541659043863e+04 
       1.474177333540e-02       1.541235527539e+04 
       1.487080897380e-02       1.540776342281e+04 
       1.499988298214e-02       1.540244539971e+04 
       1.512899568732e-02       1.539557978373e+04 
       1.525814743700e-02       1.538754724603e+04 
       1.538733859953e-02       1.537777828893e+04 
       1.551656956385e-02       1.536800856813e+04 
       1.564584073954e-02       1.535654938494e+04 
       1.577515255670e-02       1.534400557275e+04 
       1.590450546606e-02       1.533025924224e+04 
       1.603389993894e-02       1.531559370795e+04 
       1.616333646732e-02       1.529982055271e+04 
       1.629281556390e-02       1.528276157142e+04 
       1.642233776221e-02       1.526498732403e+04 
       1.655190361669e-02       1.524601059761e+04 
       1.668151370282e-02       1.522615812657e+04 
       1.681116861728e-02       1.520526865830e+04 
       1.694086897806e-02       1.518332391135e+04 
       1.707061542472e-02       1.516062906666e+04 
       1.720040861847e-02       1.513640276832e+04 
       1.733024924251e-02       1.511220849818e+04 
       1.746013800215e-02       1.508772281924e+04 
       1.759007562510e-02       1.506119525815e+04 
       1.772006286174e-02       1.503390648942e+04 
       1.785010048539e-02       1.500573227171e+04 
       1.798018929257e-02       1.497528956860e+04 
       1.811033010338e-02       1.494665583574e+04 
       1.824052376175e-02       1.491483093168e+04 
       1.837077113585e-02       1.488481058467e+04 
       1.850107311840e-02       1.485276671542e+04 
       1.863143062710e-02       1.481822553263e+04 
       1.876184460497e-02       1.478453650684e+04 
       1.889231602079e-02       1.475009948463e+04 
       1.902284586954e-02       1.471490690067e+04 
       1.915343517282e-02       1.467913774821e+04 
       1.928408497933e-02       1.464410616815e+04 
       1.941479636536e-02       1.460693952374e+04 
       1.954557043527e-02       1.456894835323e+04 
       1.967640832202e-02       1.453047070382e+04 
       1.980731118771e-02       1.449066222717e+04 
       1.993828022414e-02       1.445144554687e+04 
       2.006931665338e-02       1.441092939473e+04 
       2.020042172836e-02       1.436934772926e+04 
       2.033159673351e-02       1.432835060385e+04 
       2.046284298537e-02       1.428615153022e+04 
       2.059416183327e-02       1.424245501102e+04 
       2.072555466002e-02       1.419861025034e+04 
       2.085702288256e-02       1.415472661715e+04 
       2.098856795276e-02       1.411044476283e+04 
       2.112019135811e-02       1.406693250846e+04 
       2.125189462254e-02       1.402018393718e+04 
       2.138367930717e-02       1.397566432375e+04 
       2.151554701117e-02       1.392933286432e+04 
       2.164749937262e-02       1.388109586879e+04 
       2.177953806933e-02       1.383390606894e+04 
       2.191166481979e-02       1.378705684135e+04 
       2.204388138412e-02       1.373944289942e+04 
       2.217618956496e-02       1.369086220837e+04 
       2.230859120855e-02       1.364188642002e+04 
       2.244108820567e-02       1.359254798050e+04 
       2.257368249275e-02       1.354287914770e+04 
       2.270637605295e-02       1.349197513519e+04 
       2.283917091726e-02       1.344220613071e+04 
       2.297206916568e-02       1.339144296451e+04 
       2.310507292839e-02       1.333889641083e+04 
       2.323818438700e-02       1.328746610574e+04 
       2.337140577581e-02       1.323655130630e+04 
       2.350473938315e-02       1.318432623754e+04 
       2.363818755266e-02       1.313143155147e+04 
       2.377175268477e-02       1.307937984772e+04 
       2.390543723807e-02       1.302533420937e+04 
       2.403924373083e-02       1.297207972792e+04 
       2.417317474253e-02       1.291929866328e+04 
       2.430723291542e-02       1.286561246499e+04 
       2.444142095618e-02       1.281155839985e+04 
       2.457574163760e-02       1.275726178383e+04 
       2.471019780028e-02       1.270274487609e+04 
       2.484479235450e-02       1.264803558911e+04 
       2.497952828202e-02       1.259305462981e+04 
       2.511440863801e-02       1.253793856324e+04 
       2.524943655303e-02       1.248264328121e+04 
       2.538461523512e-02       1.242702009962e+04 
       2.551994797184e-02       1.237162598217e+04 
       2.565543813252e-02       1.231545677363e+04 
       2.579108917051e-02       1.225943996869e+04 
       2.592690462549e-02       1.220329154286e+04 
       2.606288812592e-02       1.214696361394e+04 
       2.619904339155e-02       1.209052061684e+04 
       2.633537423597e-02       1.203393571855e+04 
       2.647188456935e-02       1.197723747726e+04 
       2.660857840116e-02       1.192063813877e+04 
       2.674545984307e-02       1.186345932762e+04 
       2.688253311194e-02       1.180647412113e+04 
       2.701980253287e-02       1.174934234298e+04 
       2.715727254244e-02       1.169277462038e+04 
       2.729494769197e-02       1.163513529071e+04 
       2.743283265099e-02       1.157775650694e+04 
       2.757093221079e-02       1.151975243113e+04 
       2.770925128811e-02       1.146315224296e+04 
       2.784779492897e-02       1.140528693861e+04 
       2.798656831264e-02       1.134760754518e+04 
       2.812557675579e-02       1.128948392390e+04 
       2.826482571672e-02       1.123271582772e+04 
       2.840432079988e-02       1.117508614791e+04 
       2.854406776042e-02       1.111715807736e+04 
       2.868407250906e-02       1.105957963999e+04 
       2.882434111702e-02       1.100195112773e+04 
       2.896487982126e-02       1.094377215981e+04 
       2.910569502983e-02       1.088658470333e+04 
       2.924679332755e-02       1.082796721271e+04 
       2.938818148178e-02       1.077108924172e+04 
       2.952986644856e-02       1.071244540303e+04 
       2.967185537893e-02       1.065533559647e+04 
       2.981415562554e-02       1.059709695017e+04 
       2.995677474950e-02       1.054028436014e+04 
       3.009972052758e-02       1.048186464605e+04 
       3.024300095968e-02       1.042428525153e+04 
       3.038662427662e-02       1.036712511045e+04 
       3.053059894830e-02       1.030991711526e+04 
       3.067493369218e-02       1.025247559230e+04 
       3.081963748218e-02       1.019492698587e+04 
       3.096471955791e-02       1.013759331756e+04 
       3.111018943440e-02       1.008071010108e+04 
       3.125605691220e-02       1.002327352290e+04 
       3.140233208800e-02       9.966471878600e+03 
       3.154902536572e-02       9.909264250576e+03 
       3.169614746808e-02       9.852313467478e+03 
       3.184370944881e-02       9.795445306589e+03 
       3.199172270533e-02       9.738700488288e+03 
       3.214019899213e-02       9.681994841142e+03 
       3.228915043476e-02       9.625368631681e+03 
       3.243858954453e-02       9.568940621605e+03 
       3.258852923389e-02       9.512504145258e+03 
       3.273898283262e-02       9.456415912363e+03 
       3.288996410486e-02       9.399940192323e+03 
       3.304148726696e-02       9.343848951150e+03 
       3.319356700626e-02       9.287855797520e+03 
       3.334621850089e-02       9.231762004822e+03 
       3.349945744058e-02       9.176234358310e+03 
       3.365330004854e-02       9.120427845096e+03 
       3.380776310462e-02       9.064866530188e+03 
       3.396286396965e-02       9.009570978021e+03 
       3.411862061110e-02       8.953840579167e+03 
       3.427505163025e-02       8.898959167925e+03 
       3.443217629083e-02       8.843929088898e+03 
       3.459001454926e-02       8.788561929231e+03 
       3.474858708671e-02       8.734075412914e+03 
       3.490791534296e-02       8.679340736710e+03 
       3.506802155224e-02       8.624768419787e+03 
       3.522892878128e-02       8.570261410221e+03 
       3.539066096952e-02       8.515941412797e+03 
       3.555324297194e-02       8.461332305171e+03 
       3.571670060433e-02       8.407645162425e+03 
       3.588106069155e-02       8.353718139670e+03 
       3.604635111876e-02       8.299560772708e+03 
       3.621260088590e-02       8.246160979530e+03 
       3.637984016575e-02       8.192627765427e+03 
       3.654810036579e-02       8.139192732393e+03 
       3.671741419408e-02       8.085906442918e+03 
       3.688781572972e-02       8.032484672242e+03 
       3.705934049795e-02       7.979660402922e+03 
       3.723202555053e-02       7.926769243689e+03 
       3.740590955172e-02       7.873815269964e+03 
       3.758103287036e-02       7.821317415349e+03 
       3.775743767855e-02       7.768784666645e+03 
       3.793516805749e-02       7.716392985288e+03 
       3.811427011127e-02       7.664105247046e+03 
       3.829479208903e-02       7.611439786914e+03 
       3.847678451653e-02       7.559455817077e+03 
       3.866030033781e-02       7.507975665039e+03 
       3.884539506797e-02       7.456004884005e+03 
       3.903212695812e-02       7.404018642396e+03 
       3.922055717360e-02       7.352916399674e+03 
       3.941074998689e-02       7.301463123236e+03 
       3.960277298649e-02       7.249942875732e+03 
       3.979669730355e-02       7.198891224517e+03 
       3.999259785801e-02       7.147743764285e+03 
       4.019055362619e-02       7.096720986424e+03 
       4.039064793222e-02       7.045487795778e+03 
       4.059296876580e-02       6.994936714848e+03 
       4.079760912922e-02       6.944089118492e+03 
       4.100466741681e-02       6.893436533408e+03 
       4.121424783056e-02       6.842840054031e+03 
       4.142646083607e-02       6.792465719514e+03 
       4.164142366350e-02       6.741962025875e+03 
       4.185926085895e-02       6.691706119765e+03 
       4.208010489239e-02       6.641440623782e+03 
       4.230409682914e-02       6.591203986372e+03 
       4.253138707286e-02       6.540927970182e+03 
       4.276213618943e-02       6.490831141537e+03 
       4.299651582211e-02       6.440867923278e+03 
       4.323470971049e-02       6.390816892888e+03 
       4.347691482711e-02       6.340808066093e+03 
       4.372334264845e-02       6.290751780472e+03 
       4.397422057936e-02       6.240866589253e+03 
       4.422979355318e-02       6.190893253910e+03 
       4.449032583397e-02       6.140673701088e+03 
       4.475610305132e-02       6.090949983770e+03 
       4.502743450429e-02       6.040927040521e+03 
       4.530465577708e-02       5.990896824279e+03 
       4.558813171754e-02       5.940518860370e+03 
       4.587825983897e-02       5.890611197056e+03 
       4.617547421776e-02       5.840090020668e+03 
       4.648024997382e-02       5.790048591829e+03 
       4.679310843848e-02       5.739637989743e+03 
       4.711462313673e-02       5.689063993971e+03 
       4.744542673780e-02       5.638385634505e+03 
       4.778621916177e-02       5.587238934019e+03 
       4.813777707257e-02       5.536498822462e+03 
       4.850096504050e-02       5.485244370301e+03 
       4.887674872438e-02       5.433757275247e+03 
       4.926621050782e-02       5.381885752574e+03 
       4.967056813129e-02       5.329834128427e+03 
       5.009119699784e-02       5.277477068146e+03 
       5.052965700368e-02       5.224725559315e+03 
       5.098772496627e-02       5.171526971727e+03 
       5.146743400414e-02       5.117635703690e+03 
       5.197112157982e-02       5.063830113893e+03 
       5.250148836704e-02       5.008619130991e+03 
       5.306167066023e-02       4.953406185887e+03 
       5.365532971716e-02       4.897023011778e+03 
       5.428676219834e-02       4.839579600050e+03 
       5.496103667465e-02       4.780980412073e+03 
       5.568416183614e-02       4.721055441754e+03 
       5.646329214238e-02       4.659788439916e+03 
       5.730697534282e-02       4.596331109333e+03 
       5.822544184871e-02       4.530508585819e+03 
       5.923092511196e-02       4.461660875414e+03 
       6.033797923594e-02       4.389107774169e+03 
       6.156371593844e-02       4.311211235763e+03 
