# Matter power spectrum P(k) at redshift z=0
# for k=1.04206e-05 to 5.30492 h/Mpc,
# number of wavenumbers equal to 556
#    1:k (h/Mpc)              2:P (Mpc/h)^3        
       1.042057218102e-05       4.683533687472e+01 
       2.326965112342e-05       1.017701908891e+02 
       3.616368416807e-05       1.558086173909e+02 
       4.913719191669e-05       2.095063010984e+02 
       6.222526306398e-05       2.631826560270e+02 
       7.546386573317e-05       3.170732304760e+02 
       8.889016871848e-05       3.713952454821e+02 
       1.025428768879e-04       4.263355607742e+02 
       1.164625850317e-04       4.820849293377e+02 
       1.306921544768e-04       5.388234602515e+02 
       1.452771167918e-04       5.967450687741e+02 
       1.602661088541e-04       6.560461465929e+02 
       1.757113433752e-04       7.169319662986e+02 
       1.916691186266e-04       7.796218884231e+02 
       2.082003704669e-04       8.443468866040e+02 
       2.253712687328e-04       9.113538899619e+02 
       2.432538584349e-04       9.809142742352e+02 
       2.619267438096e-04       1.053313711312e+03 
       2.814758098253e-04       1.128866257635e+03 
       3.019949709326e-04       1.207911002031e+03 
       3.235869302973e-04       1.290812255562e+03 
       3.463639240714e-04       1.377970848699e+03 
       3.704484140771e-04       1.469815135443e+03 
       3.959736783330e-04       1.566805490826e+03 
       4.230842321551e-04       1.669437790411e+03 
       4.519359935994e-04       1.778240771145e+03 
       4.826960870599e-04       1.893771400759e+03 
       5.155421603068e-04       2.016613765528e+03 
       5.506610770795e-04       2.147369161353e+03 
       5.882468451648e-04       2.286645224138e+03 
       6.284976558480e-04       2.435049374490e+03 
       6.716119524910e-04       2.593161998412e+03 
       7.177835202431e-04       2.761530405336e+03 
       7.671956976726e-04       2.940627165554e+03 
       8.200149485734e-04       3.130846950887e+03 
       8.763841814427e-04       3.332465512676e+03 
       9.364163367208e-04       3.545625820282e+03 
       1.000188842063e-03       3.770324709516e+03 
       1.067739530145e-03       4.006393436831e+03 
       1.139064503247e-03       4.253492122274e+03 
       1.214118221432e-03       4.511134858475e+03 
       1.292815822649e-03       4.778683527589e+03 
       1.375037409677e-03       5.055362058119e+03 
       1.460633819123e-03       5.340319646431e+03 
       1.549433263665e-03       5.632663351760e+03 
       1.641248223778e-03       5.931446636468e+03 
       1.735882044008e-03       6.235713263648e+03 
       1.833134827638e-03       6.544524722309e+03 
       1.932808383275e-03       6.856969717480e+03 
       2.034710125338e-03       7.172190344250e+03 
       2.138655947732e-03       7.489379467657e+03 
       2.244472169001e-03       7.807796281974e+03 
       2.351996690227e-03       8.126762054188e+03 
       2.461079521249e-03       8.445662931970e+03 
       2.571582825440e-03       8.763945633709e+03 
       2.683380616479e-03       9.081118769393e+03 
       2.796358218588e-03       9.396744745761e+03 
       2.910411578978e-03       9.710436445835e+03 
       3.025446500195e-03       1.002185517922e+04 
       3.141377842005e-03       1.033070208222e+04 
       3.258128727724e-03       1.063671878354e+04 
       3.375629778368e-03       1.093968026776e+04 
       3.493818389279e-03       1.123939011314e+04 
       3.612638057479e-03       1.153568147378e+04 
       3.732037763470e-03       1.182841099112e+04 
       3.851971408043e-03       1.211745515010e+04 
       3.972397302633e-03       1.240271300637e+04 
       4.093277710446e-03       1.268409738774e+04 
       4.214578434858e-03       1.296153915199e+04 
       4.336268451247e-03       1.323497972793e+04 
       4.458319578333e-03       1.350437388596e+04 
       4.580706185188e-03       1.376968843638e+04 
       4.703404930262e-03       1.403088883312e+04 
       4.826394529030e-03       1.428791640816e+04 
       4.949655547142e-03       1.454086896733e+04 
       5.073170216248e-03       1.478966480134e+04 
       5.196922269937e-03       1.503428286795e+04 
       5.320896797515e-03       1.527487676504e+04 
       5.445080113588e-03       1.551071832793e+04 
       5.569459641634e-03       1.574366177956e+04 
       5.694023809978e-03       1.597188596446e+04 
       5.818761958739e-03       1.619610963817e+04 
       5.943664256511e-03       1.641550509199e+04 
       6.068721625672e-03       1.663148680801e+04 
       6.193925675349e-03       1.684343118130e+04 
       6.319268641182e-03       1.705214131611e+04 
       6.444743331135e-03       1.725671594273e+04 
       6.570343076681e-03       1.745586967491e+04 
       6.696061688782e-03       1.765310166836e+04 
       6.821893418135e-03       1.784543916926e+04 
       6.947832919238e-03       1.803439137749e+04 
       7.073875217858e-03       1.821918377821e+04 
       7.200015681550e-03       1.840024574193e+04 
       7.326249992911e-03       1.857835251606e+04 
       7.452574125278e-03       1.875196876529e+04 
       7.578984320627e-03       1.892219184367e+04 
       7.705477069457e-03       1.908904600341e+04 
       7.832049092443e-03       1.925224709009e+04 
       7.958697323705e-03       1.941179650366e+04 
       8.085418895512e-03       1.956829533392e+04 
       8.212211124305e-03       1.972159488432e+04 
       8.339071497896e-03       1.986970972925e+04 
       8.465997663740e-03       2.001618629736e+04 
       8.592987418178e-03       2.015919073437e+04 
       8.720038696556e-03       2.029824768263e+04 
       8.847149564156e-03       2.043383928276e+04 
       8.974318207839e-03       2.056716221636e+04 
       9.101542928364e-03       2.069697206980e+04 
       9.228822133307e-03       2.082385664050e+04 
       9.356154330527e-03       2.094683697473e+04 
       9.483538122139e-03       2.106653978716e+04 
       9.610972198953e-03       2.118413187795e+04 
       9.738455335323e-03       2.129900017065e+04 
       9.865986384394e-03       2.141037347399e+04 
       9.993564273694e-03       2.151861177057e+04 
       1.012118800106e-02       2.162346636917e+04 
       1.024885663085e-02       2.172682824626e+04 
       1.037656929045e-02       2.182643408023e+04 
       1.050432516701e-02       2.192325985363e+04 
       1.063212350445e-02       2.201739561794e+04 
       1.075996360063e-02       2.210924836035e+04 
       1.088784480475e-02       2.219811598140e+04 
       1.101576651498e-02       2.228452176067e+04 
       1.114372817613e-02       2.236731633577e+04 
       1.127172927762e-02       2.244770142633e+04 
       1.139976935154e-02       2.252562272794e+04 
       1.152784797079e-02       2.260172361772e+04 
       1.165596474745e-02       2.267504663676e+04 
       1.178411933118e-02       2.274620039930e+04 
       1.191231140780e-02       2.281408537557e+04 
       1.204054069789e-02       2.287969195106e+04 
       1.216880695557e-02       2.294387910370e+04 
       1.229710996733e-02       2.300386401954e+04 
       1.242544955090e-02       2.306298420659e+04 
       1.255382555428e-02       2.311938718787e+04 
       1.268223785481e-02       2.317325053433e+04 
       1.281068635825e-02       2.322470314588e+04 
       1.293917099803e-02       2.327495002444e+04 
       1.306769173445e-02       2.332206773239e+04 
       1.319624855405e-02       2.336651746696e+04 
       1.332484146892e-02       2.340960614729e+04 
       1.345347051615e-02       2.345041384588e+04 
       1.358213575726e-02       2.348933812449e+04 
       1.371083727772e-02       2.352586367811e+04 
       1.383957518651e-02       2.356062532182e+04 
       1.396834961569e-02       2.359326489158e+04 
       1.409716072003e-02       2.362466430985e+04 
       1.422600867665e-02       2.365282131692e+04 
       1.435489368476e-02       2.367961717075e+04 
       1.448381596533e-02       2.370412831319e+04 
       1.461277576092e-02       2.372713435998e+04 
       1.474177333540e-02       2.374787739770e+04 
       1.487080897380e-02       2.376694602365e+04 
       1.499988298214e-02       2.378410170931e+04 
       1.512899568732e-02       2.379984031963e+04 
       1.525814743700e-02       2.381402033209e+04 
       1.538733859953e-02       2.382639576299e+04 
       1.551656956385e-02       2.383590167035e+04 
       1.564584073954e-02       2.384506682138e+04 
       1.577515255670e-02       2.385190110659e+04 
       1.590450546606e-02       2.385719572474e+04 
       1.603389993894e-02       2.385997226696e+04 
       1.616333646732e-02       2.386310429337e+04 
       1.629281556390e-02       2.386318976581e+04 
       1.642233776221e-02       2.386172047223e+04 
       1.655190361669e-02       2.385897639276e+04 
       1.668151370282e-02       2.385451158735e+04 
       1.681116861728e-02       2.384911792407e+04 
       1.694086897806e-02       2.384177334879e+04 
       1.707061542472e-02       2.383360126311e+04 
       1.720040861847e-02       2.382367241414e+04 
       1.733024924251e-02       2.381137005041e+04 
       1.746013800215e-02       2.379886998414e+04 
       1.759007562510e-02       2.378417615070e+04 
       1.772006286174e-02       2.376802194527e+04 
       1.785010048539e-02       2.375178727603e+04 
       1.798018929257e-02       2.373312826445e+04 
       1.811033010338e-02       2.371338624342e+04 
       1.824052376175e-02       2.369271208368e+04 
       1.837077113585e-02       2.367100545221e+04 
       1.850107311840e-02       2.364647901718e+04 
       1.863143062710e-02       2.362214782780e+04 
       1.876184460497e-02       2.359589778503e+04 
       1.889231602079e-02       2.356940841057e+04 
       1.902284586954e-02       2.354133240172e+04 
       1.915343517282e-02       2.351106058610e+04 
       1.928408497933e-02       2.348120734403e+04 
       1.941479636536e-02       2.344888690342e+04 
       1.954557043527e-02       2.341687627301e+04 
       1.967640832202e-02       2.338232022278e+04 
       1.980731118771e-02       2.334788920723e+04 
       1.993828022414e-02       2.331232612571e+04 
       2.006931665338e-02       2.327546299109e+04 
       2.020042172836e-02       2.323767177577e+04 
       2.033159673351e-02       2.319815231409e+04 
       2.046284298537e-02       2.315831779318e+04 
       2.059416183327e-02       2.311734271389e+04 
       2.072555466002e-02       2.307591200537e+04 
       2.085702288256e-02       2.303321151058e+04 
       2.098856795276e-02       2.298962419767e+04 
       2.112019135811e-02       2.294575571100e+04 
       2.125189462254e-02       2.290013986527e+04 
       2.138367930717e-02       2.285338268173e+04 
       2.151554701117e-02       2.280667413874e+04 
       2.164749937262e-02       2.275923956752e+04 
       2.177953806933e-02       2.271023410857e+04 
       2.191166481979e-02       2.266113385700e+04 
       2.204388138412e-02       2.261067383253e+04 
       2.217618956496e-02       2.256019792794e+04 
       2.230859120855e-02       2.250809518179e+04 
       2.244108820567e-02       2.245540932737e+04 
       2.257368249275e-02       2.240229517193e+04 
       2.270637605295e-02       2.234848279258e+04 
       2.283917091726e-02       2.229432302995e+04 
       2.297206916568e-02       2.223904324510e+04 
       2.310507292839e-02       2.218344712511e+04 
       2.323818438700e-02       2.212663077196e+04 
       2.337140577581e-02       2.206950789036e+04 
       2.350473938315e-02       2.201176629156e+04 
       2.363818755266e-02       2.195368113044e+04 
       2.377175268477e-02       2.189463085565e+04 
       2.390543723807e-02       2.183534493077e+04 
       2.403924373083e-02       2.177541254373e+04 
       2.417317474253e-02       2.171482560678e+04 
       2.430723291542e-02       2.165374611203e+04 
       2.444142095618e-02       2.159227906091e+04 
       2.457574163760e-02       2.153026756560e+04 
       2.471019780028e-02       2.146775103563e+04 
       2.484479235450e-02       2.140473401842e+04 
       2.497952828202e-02       2.134099195307e+04 
       2.511440863801e-02       2.127730814860e+04 
       2.524943655303e-02       2.121292489511e+04 
       2.538461523512e-02       2.114807924688e+04 
       2.551994797184e-02       2.108278599522e+04 
       2.565543813252e-02       2.101723188682e+04 
       2.579108917051e-02       2.095110392854e+04 
       2.592690462549e-02       2.088454930485e+04 
       2.606288812592e-02       2.081791656624e+04 
       2.619904339155e-02       2.075063460398e+04 
       2.633537423597e-02       2.068357894576e+04 
       2.647188456935e-02       2.061536579661e+04 
       2.660857840116e-02       2.054732944520e+04 
       2.674545984307e-02       2.047869922486e+04 
       2.688253311194e-02       2.040989763964e+04 
       2.701980253287e-02       2.034084521033e+04 
       2.715727254244e-02       2.027147014202e+04 
       2.729494769197e-02       2.020186574323e+04 
       2.743283265099e-02       2.013177662477e+04 
       2.757093221079e-02       2.006188135378e+04 
       2.770925128811e-02       1.999140198940e+04 
       2.784779492897e-02       1.992107968900e+04 
       2.798656831264e-02       1.984993380231e+04 
       2.812557675579e-02       1.977879661870e+04 
       2.826482571672e-02       1.970768142585e+04 
       2.840432079988e-02       1.963624082804e+04 
       2.854406776042e-02       1.956454193289e+04 
       2.868407250906e-02       1.949284937635e+04 
       2.882434111702e-02       1.942072309435e+04 
       2.896487982126e-02       1.934853678442e+04 
       2.910569502983e-02       1.927605740646e+04 
       2.924679332755e-02       1.920367647124e+04 
       2.938818148178e-02       1.913113169197e+04 
       2.952986644856e-02       1.905817007200e+04 
       2.967185537893e-02       1.898514616555e+04 
       2.981415562554e-02       1.891220196002e+04 
       2.995677474950e-02       1.883906556049e+04 
       3.009972052758e-02       1.876579003797e+04 
       3.024300095968e-02       1.869265904938e+04 
       3.038662427662e-02       1.861919953900e+04 
       3.053059894830e-02       1.854529728099e+04 
       3.067493369218e-02       1.847184250194e+04 
       3.081963748218e-02       1.839838300416e+04 
       3.096471955791e-02       1.832426073834e+04 
       3.111018943440e-02       1.825035612850e+04 
       3.125605691220e-02       1.817654444187e+04 
       3.140233208800e-02       1.810272426285e+04 
       3.154902536572e-02       1.802893491419e+04 
       3.169614746808e-02       1.795499502327e+04 
       3.184370944881e-02       1.788101035377e+04 
       3.199172270533e-02       1.780658643225e+04 
       3.214019899213e-02       1.773257606461e+04 
       3.228915043476e-02       1.765867995406e+04 
       3.243858954453e-02       1.758448448184e+04 
       3.258852923389e-02       1.751032904159e+04 
       3.273898283262e-02       1.743631183174e+04 
       3.288996410486e-02       1.736211684249e+04 
       3.304148726696e-02       1.728813818376e+04 
       3.319356700626e-02       1.721385319839e+04 
       3.334621850089e-02       1.713986691954e+04 
       3.349945744058e-02       1.706571081934e+04 
       3.365330004854e-02       1.699185469080e+04 
       3.380776310462e-02       1.691792109944e+04 
       3.396286396965e-02       1.684374154656e+04 
       3.411862061110e-02       1.676982305408e+04 
       3.427505163025e-02       1.669571804659e+04 
       3.443217629083e-02       1.662207362392e+04 
       3.459001454926e-02       1.654798014039e+04 
       3.474858708671e-02       1.647423732147e+04 
       3.490791534296e-02       1.640024711012e+04 
       3.506802155224e-02       1.632681274939e+04 
       3.522892878128e-02       1.625308442156e+04 
       3.539066096952e-02       1.617977160435e+04 
       3.555324297194e-02       1.610576507500e+04 
       3.571670060433e-02       1.603230564720e+04 
       3.588106069155e-02       1.595848428747e+04 
       3.604635111876e-02       1.588518865948e+04 
       3.621260088590e-02       1.581193570289e+04 
       3.637984016575e-02       1.573845244055e+04 
       3.654810036579e-02       1.566524381853e+04 
       3.671741419408e-02       1.559219581859e+04 
       3.688781572972e-02       1.551885363201e+04 
       3.705934049795e-02       1.544567572304e+04 
       3.723202555053e-02       1.537268507654e+04 
       3.740590955172e-02       1.529999135948e+04 
       3.758103287036e-02       1.522670749856e+04 
       3.775743767855e-02       1.515386511124e+04 
       3.793516805749e-02       1.508097564062e+04 
       3.811427011127e-02       1.500819147142e+04 
       3.829479208903e-02       1.493552681531e+04 
       3.847678451653e-02       1.486273489819e+04 
       3.866030033781e-02       1.479011323251e+04 
       3.884539506797e-02       1.471744437422e+04 
       3.903212695812e-02       1.464487823203e+04 
       3.922055717360e-02       1.457233639593e+04 
       3.941074998689e-02       1.449974194184e+04 
       3.960277298649e-02       1.442746496017e+04 
       3.979669730355e-02       1.435485861975e+04 
       3.999259785801e-02       1.428240585081e+04 
       4.019055362619e-02       1.420995906754e+04 
       4.039064793222e-02       1.413747739173e+04 
       4.059296876580e-02       1.406508666925e+04 
       4.079760912922e-02       1.399264442608e+04 
       4.100466741681e-02       1.392023271983e+04 
       4.121424783056e-02       1.384778875714e+04 
       4.142646083607e-02       1.377525260574e+04 
       4.164142366350e-02       1.370288736289e+04 
       4.185926085895e-02       1.363015797094e+04 
       4.208010489239e-02       1.355751195773e+04 
       4.230409682914e-02       1.348527498584e+04 
       4.253138707286e-02       1.341253202213e+04 
       4.276213618943e-02       1.333935316214e+04 
       4.299651582211e-02       1.326638532970e+04 
       4.323470971049e-02       1.319391539968e+04 
       4.347691482711e-02       1.312037075298e+04 
       4.372334264845e-02       1.304702825418e+04 
       4.397422057936e-02       1.297358010779e+04 
       4.422979355318e-02       1.290019286696e+04 
       4.449032583397e-02       1.282642456383e+04 
       4.475610305132e-02       1.275263569366e+04 
       4.502743450429e-02       1.267841338612e+04 
       4.530465577708e-02       1.260386401767e+04 
       4.558813171754e-02       1.252958184837e+04 
       4.587825983897e-02       1.245468200765e+04 
       4.617547421776e-02       1.237951598973e+04 
       4.648024997382e-02       1.230400501438e+04 
       4.679310843848e-02       1.222852241395e+04 
       4.711462313673e-02       1.215181489047e+04 
       4.744542673780e-02       1.207498821523e+04 
       4.778621916177e-02       1.199765392849e+04 
       4.813777707257e-02       1.192007308354e+04 
       4.850096504050e-02       1.184141756780e+04 
       4.887674872438e-02       1.176244855294e+04 
       4.926621050782e-02       1.168249806614e+04 
       4.967056813129e-02       1.160180539000e+04 
       5.009119699784e-02       1.152043041359e+04 
       5.052965700368e-02       1.143804445840e+04 
       5.098772496627e-02       1.135440632387e+04 
       5.146743400414e-02       1.126957388084e+04 
       5.197112157982e-02       1.118372780259e+04 
       5.250148836704e-02       1.109618509902e+04 
       5.306167066023e-02       1.100716511592e+04 
       5.365532971716e-02       1.091580912350e+04 
       5.428676219834e-02       1.082215010719e+04 
       5.496103667465e-02       1.072590099706e+04 
       5.568416183614e-02       1.062647209014e+04 
       5.646329214238e-02       1.052342449395e+04 
       5.730697534282e-02       1.041569570097e+04 
       5.822544184871e-02       1.030315956697e+04 
       5.923092511196e-02       1.018308093089e+04 
       6.033797923594e-02       1.005477334723e+04 
       6.156371593844e-02       9.915608447425e+03 
