# dimensionless total [l(l+1)/2pi] C_l's
# for l=2 to 3000, i.e. number of multipoles equal to 2999
#
# -> if you prefer output in CAMB/HealPix/LensPix units/order, set 'format' to 'camb' in input file
# -> if you don't want to see such a header, set 'headers' to 'no' in input file
# -> for CMB lensing (phi), these are C_l^phi-phi for the lensing potential.
#    Remember the conversion factors:
#    C_l^dd (deflection) = l(l+1) C_l^phi-phi
#    C_l^gg (shear/convergence) = 1/4 (l(l+1))^2 C_l^phi-phi
#
# 1:l     2:TT                     3:EE                     4:TE                     5:BB                     6:phiphi                 7:TPhi                   8:Ephi               
    2       1.415166845643e-10       4.178937497019e-15       3.664245345217e-13       0.000000000000e+00       8.281702298633e-09       4.496182827751e-10      -1.840658729506e-12 
    3       1.337918661674e-10       5.354561106310e-15       4.108658933336e-13       0.000000000000e+00       5.084411122857e-09       3.184660527878e-10      -1.393800405548e-12 
    4       1.264193734841e-10       4.629326253453e-15       3.835861686106e-13       0.000000000000e+00       3.521166172494e-09       2.408883275514e-10      -9.120244898423e-13 
    5       1.208237401163e-10       3.086430205135e-15       3.259169803305e-13       0.000000000000e+00       2.620133571227e-09       1.901036354431e-10      -5.064155628013e-13 
    6       1.169129360446e-10       1.724909089172e-15       2.615687566646e-13       0.000000000000e+00       2.041491313298e-09       1.545366603633e-10      -2.076533497086e-13 
    7       1.142930095706e-10       9.322565708879e-16       2.043091766358e-13       0.000000000000e+00       1.643457819269e-09       1.284385263064e-10      -1.723516452786e-14 
    8       1.126825481772e-10       6.022336507630e-16       1.602090310575e-13       0.000000000000e+00       1.355837013397e-09       1.086567501589e-10       7.978781693082e-14 
    9       1.118305707845e-10       4.837693301515e-16       1.306432916192e-13       0.000000000000e+00       1.140009977708e-09       9.332088777334e-11       1.067630766546e-13 
   10       1.115045968162e-10       4.119880823736e-16       1.142453989844e-13       0.000000000000e+00       9.731950157214e-10       8.118015597053e-11       8.954563831526e-14 
   11       1.116428887816e-10       3.455802960814e-16       1.082350386041e-13       0.000000000000e+00       8.329627915067e-10       7.210140274126e-11       5.223484050314e-14 
   12       1.120919044638e-10       3.003711929545e-16       1.094007733632e-13       0.000000000000e+00       7.279825408787e-10       6.373527186215e-11       1.241430958830e-14 
   13       1.127995810576e-10       2.874761258870e-16       1.149097927338e-13       0.000000000000e+00       6.417794152346e-10       5.694493284344e-11      -1.791136211974e-14 
   14       1.137167120821e-10       2.989415894229e-16       1.226180017293e-13       0.000000000000e+00       5.700430573085e-10       5.102701808236e-11      -3.448119980200e-14 
   15       1.148289635902e-10       3.229835978621e-16       1.311504119299e-13       0.000000000000e+00       5.096512195401e-10       4.605118267121e-11      -3.750080132737e-14 
   16       1.160601303587e-10       3.570322143203e-16       1.397951287967e-13       0.000000000000e+00       4.582936668087e-10       4.176352192033e-11      -3.093242475047e-14 
   17       1.174362886903e-10       4.066039528615e-16       1.483116491774e-13       0.000000000000e+00       4.142287779132e-10       3.802196967600e-11      -1.997446312785e-14 
   18       1.188934724838e-10       4.771305212842e-16       1.569645434813e-13       0.000000000000e+00       3.759800034944e-10       3.475886438586e-11      -9.515976048841e-15 
   19       1.204427108149e-10       5.689465795188e-16       1.659898348342e-13       0.000000000000e+00       3.429304837793e-10       3.192743087880e-11      -2.160162751641e-15 
   20       1.220752467744e-10       6.800599285092e-16       1.755470434866e-13       0.000000000000e+00       3.138207263274e-10       2.941460550592e-11       3.824051945233e-16 
   21       1.237921279008e-10       8.098325763044e-16       1.855997670372e-13       0.000000000000e+00       2.881931293466e-10       2.717473783678e-11      -1.326213261868e-15 
   22       1.255667571513e-10       9.577696757068e-16       1.959708949266e-13       0.000000000000e+00       2.654309522583e-10       2.515130122716e-11      -5.542783289798e-15 
   23       1.274051227204e-10       1.124031759888e-15       2.063404369942e-13       0.000000000000e+00       2.452296878866e-10       2.333591167487e-11      -1.051389674041e-14 
   24       1.293007073464e-10       1.308824664538e-15       2.162957785178e-13       0.000000000000e+00       2.271283060362e-10       2.171221847634e-11      -1.437169526989e-14 
   25       1.312480468506e-10       1.512359788725e-15       2.255268585389e-13       0.000000000000e+00       2.108814051258e-10       2.025819216557e-11      -1.630406119393e-14 
   26       1.332291239864e-10       1.735006877367e-15       2.337668483201e-13       0.000000000000e+00       1.961711612402e-10       1.893731200427e-11      -1.598437919834e-14 
   27       1.352535000755e-10       1.978401612840e-15       2.409433522222e-13       0.000000000000e+00       1.829213915030e-10       1.774034886058e-11      -1.392473557722e-14 
   28       1.373236266211e-10       2.244808391244e-15       2.470677848421e-13       0.000000000000e+00       1.709716141593e-10       1.665201922738e-11      -1.112903832225e-14 
   29       1.394280953416e-10       2.536516456394e-15       2.521826706384e-13       0.000000000000e+00       1.600317676274e-10       1.564621610072e-11      -8.717475540711e-15 
   30       1.415733717745e-10       2.854620759925e-15       2.563370674425e-13       0.000000000000e+00       1.500415791834e-10       1.472194648114e-11      -7.079672829802e-15 
   31       1.437609677722e-10       3.199748589919e-15       2.596059846033e-13       0.000000000000e+00       1.409269149672e-10       1.387937467719e-11      -6.397081545277e-15 
   32       1.459824924310e-10       3.572473132543e-15       2.620582487719e-13       0.000000000000e+00       1.325436013468e-10       1.311169510491e-11      -6.758353990516e-15 
   33       1.482373294432e-10       3.973731418662e-15       2.636132843623e-13       0.000000000000e+00       1.248460070120e-10       1.241235196082e-11      -7.811032111122e-15 
   34       1.505190032115e-10       4.404550083720e-15       2.641301342096e-13       0.000000000000e+00       1.177659985112e-10       1.176904813742e-11      -8.966836471519e-15 
   35       1.528160438967e-10       4.865919239700e-15       2.634588828876e-13       0.000000000000e+00       1.111982404467e-10       1.116603430490e-11      -9.634402175861e-15 
   36       1.551353876114e-10       5.358740885693e-15       2.614967944839e-13       0.000000000000e+00       1.051257107342e-10       1.060122030486e-11      -9.750908656751e-15 
   37       1.574855902931e-10       5.883856897094e-15       2.581498358963e-13       0.000000000000e+00       9.952940064838e-11       1.007418858327e-11      -9.430913013265e-15 
   38       1.598697899127e-10       6.442057710746e-15       2.533171515626e-13       0.000000000000e+00       9.435036699057e-11       9.581266161853e-12      -8.829330749237e-15 
   39       1.622868229236e-10       7.034070333887e-15       2.469155820611e-13       0.000000000000e+00       8.951099616037e-11       9.117280543856e-12      -8.120346760693e-15 
   40       1.647366317594e-10       7.660526940150e-15       2.389645286921e-13       0.000000000000e+00       8.499648046030e-11       8.682301804433e-12      -7.418265162863e-15 
   41       1.672155997798e-10       8.321979034351e-15       2.295291654973e-13       0.000000000000e+00       8.079495579168e-11       8.276680408238e-12      -6.834648426210e-15 
   42       1.697144197607e-10       9.018900155385e-15       2.186992810872e-13       0.000000000000e+00       7.687319019026e-11       7.899028997721e-12      -6.501175720929e-15 
   43       1.722225920250e-10       9.751747424595e-15       2.065554474129e-13       0.000000000000e+00       7.318887694593e-11       7.546905768576e-12      -6.528981025366e-15 
   44       1.747448424866e-10       1.052117990059e-14       1.930515992986e-13       0.000000000000e+00       6.973634826496e-11       7.219483458611e-12      -6.868816235660e-15 
   45       1.772889360888e-10       1.132790064054e-14       1.780982057985e-13       0.000000000000e+00       6.651208856611e-11       6.915453395297e-12      -7.409207755074e-15 
   46       1.798608950373e-10       1.217259617144e-14       1.615935149056e-13       0.000000000000e+00       6.350100902291e-11       6.632163030427e-12      -8.013004371970e-15 
   47       1.824647905834e-10       1.305593612657e-14       1.434227259180e-13       0.000000000000e+00       6.067554522851e-11       6.365515334504e-12      -8.515872698398e-15 
   48       1.851027317393e-10       1.397848454823e-14       1.234808816112e-13       0.000000000000e+00       5.800414345399e-11       6.111149144114e-12      -8.771213368975e-15 
   49       1.877753135024e-10       1.494040507885e-14       1.017511066237e-13       0.000000000000e+00       5.548165362471e-11       5.868608399651e-12      -8.803392347039e-15 
   50       1.904809372402e-10       1.594167204212e-14       7.824700154679e-14       0.000000000000e+00       5.310595343877e-11       5.638175312902e-12      -8.695118642030e-15 
   51       1.932154314967e-10       1.698214677036e-14       5.299122182068e-14       0.000000000000e+00       5.086889488061e-11       5.419657641511e-12      -8.545637370334e-15 
   52       1.959718538226e-10       1.806157273407e-14       2.601586029487e-14       0.000000000000e+00       4.875588089566e-11       5.212353438096e-12      -8.471593600019e-15 
   53       1.987431743051e-10       1.917969477541e-14      -2.651225335743e-15       0.000000000000e+00       4.675044926660e-11       5.015355669070e-12      -8.577146662854e-15 
   54       2.015315924393e-10       2.033666401494e-14      -3.303243840048e-14       0.000000000000e+00       4.485038250040e-11       4.828639175027e-12      -8.853302523103e-15 
   55       2.043412706425e-10       2.153272857526e-14      -6.516558585832e-14       0.000000000000e+00       4.305500268816e-11       4.652191777211e-12      -9.254201004390e-15 
   56       2.071755866577e-10       2.276811891631e-14      -9.909106122441e-14       0.000000000000e+00       4.136031832864e-11       4.485678345265e-12      -9.725183623537e-15 
   57       2.100370562102e-10       2.404304816852e-14      -1.348520513228e-13       0.000000000000e+00       3.975881094859e-11       4.328419796655e-12      -1.020236814672e-14 
   58       2.129272556637e-10       2.535771246581e-14      -1.724947430393e-13       0.000000000000e+00       3.823922172294e-11       4.179372096094e-12      -1.061222314562e-14 
   59       2.158471368272e-10       2.671217251051e-14      -2.120554048768e-13       0.000000000000e+00       3.678965047178e-11       4.037408073005e-12      -1.088910509166e-14 
   60       2.187982324069e-10       2.810596539358e-14      -2.535176587418e-13       0.000000000000e+00       3.540817768202e-11       3.902286995224e-12      -1.103359172315e-14 
   61       2.217815942998e-10       2.953840305591e-14      -2.968456331661e-13       0.000000000000e+00       3.409433650100e-11       3.773873443807e-12      -1.106696758640e-14 
   62       2.247973633152e-10       3.100867951282e-14      -3.419959827367e-13       0.000000000000e+00       3.284591821780e-11       3.651843776215e-12      -1.101463230755e-14 
   63       2.278447051247e-10       3.251586716109e-14      -3.889176499271e-13       0.000000000000e+00       3.165887116749e-11       3.535675390752e-12      -1.090628404834e-14 
   64       2.309217462118e-10       3.405891308599e-14      -4.375516269278e-13       0.000000000000e+00       3.052719963535e-11       3.424635991010e-12      -1.077610296185e-14 
   65       2.340264913950e-10       3.563675431743e-14      -4.878436286913e-13       0.000000000000e+00       2.944461816422e-11       3.317984416612e-12      -1.065523285785e-14 
   66       2.371599461167e-10       3.724870026410e-14      -5.397857665513e-13       0.000000000000e+00       2.841014876728e-11       3.215646684427e-12      -1.054696346201e-14 
   67       2.403235428592e-10       3.889412491007e-14      -5.933833006826e-13       0.000000000000e+00       2.742353189263e-11       3.117664353423e-12      -1.044660460288e-14 
   68       2.435181820094e-10       4.057235465354e-14      -6.486426283497e-13       0.000000000000e+00       2.648352459622e-11       3.023990864313e-12      -1.034869283883e-14 
   69       2.467441952644e-10       4.228266794116e-14      -7.055714068900e-13       0.000000000000e+00       2.558784854831e-11       2.934486721930e-12      -1.024695947899e-14 
   70       2.500013090386e-10       4.402429490226e-14      -7.641786766975e-13       0.000000000000e+00       2.473313803989e-11       2.848914677611e-12      -1.013429860440e-14 
   71       2.532886078695e-10       4.579641698319e-14      -8.244749842067e-13       0.000000000000e+00       2.391488798906e-11       2.766934911574e-12      -1.000273508899e-14 
   72       2.566051177568e-10       4.759813126532e-14      -8.864639596765e-13       0.000000000000e+00       2.312861272577e-11       2.688197149137e-12      -9.845808078713e-15 
   73       2.599517671284e-10       4.942833630248e-14      -9.501149056415e-13       0.000000000000e+00       2.237369539487e-11       2.612648185456e-12      -9.666322155163e-15 
   74       2.633297379040e-10       5.128582360709e-14      -1.015385144568e-12       0.000000000000e+00       2.165018692542e-11       2.540274958786e-12      -9.470033143639e-15 
   75       2.667398568551e-10       5.316930987272e-14      -1.082228026964e-12       0.000000000000e+00       2.095763678548e-11       2.471010286683e-12      -9.263387258345e-15 
   76       2.701825731655e-10       5.507743580206e-14      -1.150592859266e-12       0.000000000000e+00       2.029506863189e-11       2.404730261483e-12      -9.053544270879e-15 
   77       2.736579359909e-10       5.700876493490e-14      -1.220424831726e-12       0.000000000000e+00       1.966095595994e-11       2.341251645782e-12      -8.848400678735e-15 
   78       2.771655720192e-10       5.896178247611e-14      -1.291664946301e-12       0.000000000000e+00       1.905319775324e-11       2.280329267923e-12      -8.656612873789e-15 
   79       2.807046630306e-10       6.093489412361e-14      -1.364249944541e-12       0.000000000000e+00       1.846909413339e-11       2.221653417469e-12      -8.487620310801e-15 
   80       2.842743886151e-10       6.292647768374e-14      -1.438117672563e-12       0.000000000000e+00       1.790601693495e-11       2.164926318884e-12      -8.349419546726e-15 
   81       2.878753922372e-10       6.493505081880e-14      -1.513224407633e-12       0.000000000000e+00       1.736360911584e-11       2.110112577243e-12      -8.241390195848e-15 
   82       2.915085300048e-10       6.695913042841e-14      -1.589530423068e-12       0.000000000000e+00       1.684192464633e-11       2.057227675473e-12      -8.160259547851e-15 
   83       2.951744145120e-10       6.899718225814e-14      -1.666994846546e-12       0.000000000000e+00       1.634075620546e-11       2.006261636743e-12      -8.102222841010e-15 
   84       2.988734010137e-10       7.104762070506e-14      -1.745575688677e-12       0.000000000000e+00       1.585962369972e-11       1.957177884354e-12      -8.062924780154e-15 
   85       3.026055735993e-10       7.310880862322e-14      -1.825229871579e-12       0.000000000000e+00       1.539776278184e-11       1.909912101631e-12      -8.037441054615e-15 
   86       3.063707313673e-10       7.517905712922e-14      -1.905913257452e-12       0.000000000000e+00       1.495411336952e-11       1.864371091815e-12      -8.020259856182e-15 
   87       3.101683745986e-10       7.725662540771e-14      -1.987580677154e-12       0.000000000000e+00       1.452730816414e-11       1.820431637956e-12      -8.005263397059e-15 
   88       3.139976909313e-10       7.933972051693e-14      -2.070185958775e-12       0.000000000000e+00       1.411566116956e-11       1.777939362804e-12      -7.985709427814e-15 
   89       3.178578653640e-10       8.142652214648e-14      -2.153680476673e-12       0.000000000000e+00       1.371756921444e-11       1.736746774902e-12      -7.955678806011e-15 
   90       3.217490961363e-10       8.351526176560e-14      -2.238008475455e-12       0.000000000000e+00       1.333281372973e-11       1.696836731796e-12      -7.914718725857e-15 
   91       3.256717134755e-10       8.560415559016e-14      -2.323111061715e-12       0.000000000000e+00       1.296144297454e-11       1.658216333741e-12      -7.863897197043e-15 
   92       3.296258611035e-10       8.769138091244e-14      -2.408927624591e-12       0.000000000000e+00       1.260337199121e-11       1.620878916275e-12      -7.804405267089e-15 
   93       3.336114872627e-10       8.977507628051e-14      -2.495395842180e-12       0.000000000000e+00       1.225837731129e-11       1.584803497166e-12      -7.737560502603e-15 
   94       3.376283357412e-10       9.185334167756e-14      -2.582451687941e-12       0.000000000000e+00       1.192609166166e-11       1.549954223369e-12      -7.664810470536e-15 
   95       3.416759368982e-10       9.392423870121e-14      -2.670029437107e-12       0.000000000000e+00       1.160599867060e-11       1.516279817976e-12      -7.587736219451e-15 
   96       3.457535986895e-10       9.598579074289e-14      -2.758061673094e-12       0.000000000000e+00       1.129742757380e-11       1.483713027164e-12      -7.508055760774e-15 
   97       3.498603976931e-10       9.803598316716e-14      -2.846479293913e-12       0.000000000000e+00       1.099954792047e-11       1.452170067147e-12      -7.427627550059e-15 
   98       3.539951701343e-10       1.000727634911e-13      -2.935211518573e-12       0.000000000000e+00       1.071136427936e-11       1.421550071130e-12      -7.348453968251e-15 
   99       3.581568000652e-10       1.020940882004e-13      -3.024187267591e-12       0.000000000000e+00       1.043194438110e-11       1.391759128329e-12      -7.272279554277e-15 
  100       3.623451498749e-10       1.040980703773e-13      -3.113339513761e-12       0.000000000000e+00       1.016115185989e-11       1.362787481601e-12      -7.199313245601e-15 
  101       3.665602455193e-10       1.060828534131e-13      -3.202601562403e-12       0.000000000000e+00       9.899007946630e-12       1.334642287665e-12      -7.129330779231e-15 
  102       3.708019858206e-10       1.080465669725e-13      -3.291905755024e-12       0.000000000000e+00       9.645464858577e-12       1.307323748781e-12      -7.062062381459e-15 
  103       3.750701370944e-10       1.099873277378e-13      -3.381183492380e-12       0.000000000000e+00       9.400403334913e-12       1.280824857788e-12      -6.997191337010e-15 
  104       3.793643277775e-10       1.119032401537e-13      -3.470365257541e-12       0.000000000000e+00       9.163630172355e-12       1.255131143137e-12      -6.934352558205e-15 
  105       3.836840430548e-10       1.137923971718e-13      -3.559380638957e-12       0.000000000000e+00       8.934875760744e-12       1.230220413935e-12      -6.873131154110e-15 
  106       3.880286194869e-10       1.156528809956e-13      -3.648158353523e-12       0.000000000000e+00       8.713791618632e-12       1.206062504975e-12      -6.813060999696e-15 
  107       3.923972396372e-10       1.174827638248e-13      -3.736626269641e-12       0.000000000000e+00       8.499947928881e-12       1.182619021777e-12      -6.753623304991e-15 
