# dimensionless total lensed [l(l+1)/2pi] C_l's
# for l=2 to 2500, i.e. number of multipoles equal to 2499
#
# -> if you prefer output in CAMB/HealPix/LensPix units/order, set 'format' to 'camb' in input file
# -> if you don't want to see such a header, set 'headers' to 'no' in input file
# -> for CMB lensing (phi), these are C_l^phi-phi for the lensing potential.
#    Remember the conversion factors:
#    C_l^dd (deflection) = l(l+1) C_l^phi-phi
#    C_l^gg (shear/convergence) = 1/4 (l(l+1))^2 C_l^phi-phi
#
# 1:l     2:TT                     3:EE                     4:TE                     5:BB                     6:phiphi                 7:TPhi                   8:Ephi               
    2       4.590444700462e-10       4.335159495103e-15       1.129447371023e-12       2.189728873925e-19       8.084467151949e-09       1.291803776972e-10      -1.843160965852e-12 
    3       4.244595947779e-10       5.544633504874e-15       1.217998688268e-12       4.380352529916e-19       4.958648617446e-09       1.154129272986e-10      -1.389859763772e-12 
    4       3.888604755876e-10       4.774576973822e-15       1.104611477220e-12       7.302559834276e-19       3.431680607593e-09       9.477695008763e-11      -9.015819687062e-13 
    5       3.573364222076e-10       3.169815892775e-15       9.003039378191e-13       1.095749937305e-18       2.552055779744e-09       7.692406036346e-11      -4.911082050401e-13 
    6       3.303643217222e-10       1.775650630054e-15       6.748948779431e-13       1.534656955364e-18       1.987409092526e-09       6.276816149520e-11      -1.895379646308e-13 
    7       3.073593292416e-10       9.850433735031e-16       4.718045238611e-13       2.047139520172e-18       1.599146370403e-09       5.164124437442e-11       1.694832242300e-15 
    8       2.876725263436e-10       6.711098477115e-16       3.126215862019e-13       2.633380089613e-18       1.318680241456e-09       4.288722433910e-11       9.784222602604e-14 
    9       2.706998150307e-10       5.614015661219e-16       2.037271361171e-13       3.293578173969e-18       1.108290518025e-09       3.599892729326e-11       1.226975637428e-13 
   10       2.559515210320e-10       4.833070967063e-16       1.415882285233e-13       4.027947232051e-18       9.457296604235e-10       3.052808083019e-11       1.026120269904e-13 
   11       2.431209503205e-10       4.005931699993e-16       1.170709981125e-13       4.836711465154e-18       8.093277635633e-10       2.683244982815e-11       6.225579411689e-14 
   12       2.318464886617e-10       3.383688617396e-16       1.189255218018e-13       5.720102588457e-18       7.070734129777e-10       2.277038500065e-11       1.934221874799e-14 
   13       2.219346151619e-10       3.138756996953e-16       1.364753941154e-13       6.678356657928e-18       6.231300175525e-10       1.972381951339e-11      -1.373320496291e-14 
   14       2.132065872489e-10       3.201011790093e-16       1.611066126121e-13       7.711711026787e-18       5.532921364150e-10       1.687557741699e-11      -3.259490610243e-14 
   15       2.055290642150e-10       3.430933093305e-16       1.868817427150e-13       8.820401499443e-18       4.945127478484e-10       1.461827431498e-11      -3.735247627506e-14 
   16       1.987173934834e-10       3.778849633424e-16       2.104709778871e-13       1.000465974261e-17       4.445384734971e-10       1.270321426501e-11      -3.197178524600e-14 
   17       1.927190046878e-10       4.288607974644e-16       2.306319821831e-13       1.126471100354e-17       4.016708396148e-10       1.105469184279e-11      -2.171356848660e-14 
   18       1.873913591152e-10       5.015223887426e-16       2.477799044360e-13       1.260077204712e-17       3.644701025889e-10       9.647314829810e-12      -1.158364571452e-14 
   19       1.827310122297e-10       5.966192214214e-16       2.628069353125e-13       1.401305022647e-17       3.323336063479e-10       8.447520174360e-12      -4.299036631232e-15 
   20       1.786126064594e-10       7.125513415241e-16       2.769090537549e-13       1.550174090059e-17       3.040342061581e-10       7.398668772954e-12      -1.712081308648e-15 
   21       1.750205288533e-10       8.485778797543e-16       2.907249848498e-13       1.706702859491e-17       2.791253873920e-10       6.473677227146e-12      -3.336231436748e-15 
   22       1.718784326958e-10       1.003823522319e-15       3.046860060564e-13       1.870908431573e-17       2.570062587838e-10       5.643403193355e-12      -7.483095028556e-15 
   23       1.691713793048e-10       1.177958678899e-15       3.186515366314e-13       2.042806834635e-17       2.373799895877e-10       4.909320126339e-12      -1.239952034043e-14 
   24       1.668389146249e-10       1.370646565200e-15       3.322264964791e-13       2.222412710210e-17       2.197977759365e-10       4.272963924444e-12      -1.619517604432e-14 
   25       1.648557848099e-10       1.581920091821e-15       3.449931530281e-13       2.409739648527e-17       2.040202759300e-10       3.722540998404e-12      -1.802878055145e-14 
   26       1.631701461978e-10       1.812138910654e-15       3.565329190315e-13       2.604799975118e-17       1.897377907598e-10       3.236815672184e-12      -1.754447039436e-14 
   27       1.617927276010e-10       2.063153597426e-15       3.667337059174e-13       2.807605514180e-17       1.768758287267e-10       2.807775213018e-12      -1.525614278856e-14 
   28       1.607091276598e-10       2.337591093028e-15       3.755993633193e-13       3.018166881507e-17       1.652781900787e-10       2.425562204942e-12      -1.218285514683e-14 
   29       1.598662054033e-10       2.638139145192e-15       3.831724907379e-13       3.236493507045e-17       1.546628422074e-10       2.076916348339e-12      -9.466471250925e-15 
   30       1.592647969203e-10       2.966035231043e-15       3.895438374059e-13       3.462594891702e-17       1.449709486933e-10       1.763347721675e-12      -7.526704359558e-15 
   31       1.588947582375e-10       3.321972581848e-15       3.948518901792e-13       3.696479742125e-17       1.361302450905e-10       1.489512121901e-12      -6.583331857901e-15 
   32       1.587218782556e-10       3.706571868973e-15       3.992270717438e-13       3.938155895323e-17       1.280004813661e-10       1.257002812753e-12      -6.760590065998e-15 
   33       1.587406886678e-10       4.120744747109e-15       4.025934957237e-13       4.187631359527e-17       1.205371375252e-10       1.059630201042e-12      -7.700032652223e-15 
   34       1.589356521282e-10       4.565450792591e-15       4.047917463596e-13       4.444913610561e-17       1.136738866406e-10       8.858346883005e-13      -8.789804193698e-15 
   35       1.592784194093e-10       5.041605765541e-15       4.056482152072e-13       4.710009532269e-17       1.073083159724e-10       7.229700338202e-13      -9.412546431257e-15 
   36       1.597754074050e-10       5.550108082952e-15       4.050473368395e-13       4.982926210117e-17       1.014237800505e-10       5.691651156613e-13      -9.496802568476e-15 
   37       1.604334767987e-10       6.091814187777e-15       4.028813055651e-13       5.263670405173e-17       9.600174481781e-11       4.252947409965e-13      -9.152427923388e-15 
   38       1.612454769888e-10       6.667526314741e-15       3.990295126118e-13       5.552248348193e-17       9.098495412758e-11       2.917755725609e-13      -8.528200905158e-15 
   39       1.621954268659e-10       7.277980229771e-15       3.933931833942e-13       5.848665789876e-17       8.629805083516e-11       1.687867556637e-13      -7.793320168734e-15 
   40       1.632797134861e-10       7.923813369337e-15       3.860162235567e-13       6.152928164058e-17       8.192658536834e-11       5.714087323197e-14      -7.067325536426e-15 
   41       1.644906912895e-10       8.605578987850e-15       3.770037036721e-13       6.465040485796e-17       7.785896900866e-11      -4.237164042740e-14      -6.471085896364e-15 
   42       1.658097386931e-10       9.323748732678e-15       3.664912438028e-13       6.785007316133e-17       7.406290063088e-11      -1.292541155920e-13      -6.147335176111e-15 
   43       1.672151173135e-10       1.007878259697e-14       3.545987963288e-13       7.112832546318e-17       7.049728805607e-11      -2.034824978857e-13      -6.216279598719e-15 
   44       1.687107363465e-10       1.087137608442e-14       3.412709518500e-13       7.448518653569e-17       6.715657557201e-11      -2.660409997214e-13      -6.622936686538e-15 
   45       1.703047501593e-10       1.170228211278e-14       3.263895593701e-13       7.792067224989e-17       6.403730531678e-11      -3.186015255116e-13      -7.244289121677e-15 
   46       1.720011424183e-10       1.257224300352e-14       3.098158532379e-13       8.143479153197e-17       6.112480976636e-11      -3.634247457884e-13      -7.929181055827e-15 
   47       1.737993313153e-10       1.348199046602e-14       2.913890401452e-13       8.502754629197e-17       5.839233813927e-11      -4.033980721167e-13      -8.496672991759e-15 
   48       1.756955605264e-10       1.443213750874e-14       2.709634246652e-13       8.869892858550e-17       5.580927905795e-11      -4.413417032566e-13      -8.785296969032e-15 
   49       1.776884568851e-10       1.542281818042e-14       2.485354580500e-13       9.244891131921e-17       5.337060780892e-11      -4.776068375670e-13      -8.821079126216e-15 
   50       1.797743610821e-10       1.645394624910e-14       2.241500752377e-13       9.627745480279e-17       5.107423896986e-11      -5.118656712532e-13      -8.694054143290e-15 
   51       1.819453825210e-10       1.752530901477e-14       1.978658227940e-13       1.001845090799e-16       4.891225546903e-11      -5.437848318337e-13      -8.512428617513e-15 
   52       1.841890956526e-10       1.863656177961e-14       1.697554121629e-13       1.041700137159e-16       4.687049908465e-11      -5.730260097502e-13      -8.403532899216e-15 
   53       1.864926748062e-10       1.978737609663e-14       1.398822343493e-13       1.082338992357e-16       4.493300823570e-11      -5.992944741034e-13      -8.481663894279e-15 
   54       1.888572459395e-10       2.097794199875e-14       1.082215405423e-13       1.123760923630e-16       4.309761368861e-11      -6.224978122230e-13      -8.739714620134e-15 
   55       1.912866960930e-10       2.220858527669e-14       7.471995788826e-14       1.165965117579e-16       4.136363947407e-11      -6.426291096511e-13      -9.131336877967e-15 
   56       1.937834430027e-10       2.347962590200e-14       3.931730956489e-14       1.208950663440e-16       3.972720500717e-11      -6.597252188588e-13      -9.601184518395e-15 
   57       1.963483175351e-10       2.479137894500e-14       1.946160125203e-15       1.252716551657e-16       3.818101882747e-11      -6.738693985772e-13      -1.008447705783e-14 
   58       1.989804461221e-10       2.614415549267e-14      -3.746863915892e-14       1.297261672440e-16       3.671417233916e-11      -6.851939531277e-13      -1.050656329484e-14 
   59       2.016781014139e-10       2.753810673930e-14      -7.898840496205e-14       1.342584902141e-16       3.531513772240e-11      -6.938850813781e-13      -1.080031716207e-14 
   60       2.044417519390e-10       2.897271189282e-14      -1.225891104891e-13       1.388685389024e-16       3.398204311467e-11      -7.001927441664e-13      -1.096403390977e-14 
   61       2.072715141449e-10       3.044717275603e-14      -1.682170638380e-13       1.435562331442e-16       3.271442333826e-11      -7.044277571004e-13      -1.101623178847e-14 
   62       2.101661634359e-10       3.196055578914e-14      -2.158091626481e-13       1.483214897386e-16       3.151012988633e-11      -7.069624412257e-13      -1.097916665339e-14 
   63       2.131230494289e-10       3.351178771152e-14      -2.652926029939e-13       1.531642226029e-16       3.036523327903e-11      -7.082333372594e-13      -1.087900006332e-14 
   64       2.161380112089e-10       3.509965110344e-14      -3.165845882791e-13       1.580843429268e-16       2.927392541957e-11      -7.087439198234e-13      -1.074596737958e-14 
   65       2.192067394816e-10       3.672293860944e-14      -3.696095534677e-13       1.630817721484e-16       2.823011900932e-11      -7.089526767470e-13      -1.060812393274e-14 
   66       2.223293886772e-10       3.838096338541e-14      -4.243557314562e-13       1.681564837293e-16       2.723285881817e-11      -7.089037006795e-13      -1.047066654166e-14 
   67       2.255067930080e-10       4.007314921247e-14      -4.808300814977e-13       1.733084705289e-16       2.628188526625e-11      -7.085224839569e-13      -1.033252020272e-14 
   68       2.287390623166e-10       4.179888147184e-14      -5.390420260683e-13       1.785377332669e-16       2.537598925223e-11      -7.077231670662e-13      -1.019236227231e-14 
   69       2.320255378037e-10       4.355750718298e-14      -5.990036497006e-13       1.838442810363e-16       2.451296197959e-11      -7.064080463071e-13      -1.004861093132e-14 
   70       2.353647477569e-10       4.534833504176e-14      -6.607298978167e-13       1.892281318162e-16       2.368954478291e-11      -7.044670814537e-13      -9.899413649611e-15 
   71       2.387543632787e-10       4.717063545859e-14      -7.242387755622e-13       1.946893129852e-16       2.290137895414e-11      -7.017774034168e-13      -9.742635650429e-15 
   72       2.421920081874e-10       4.902357837930e-14      -7.895402212987e-13       2.002278685362e-16       2.214412502363e-11      -6.982354108920e-13      -9.576792578071e-15 
   73       2.456779670781e-10       5.090603284520e-14      -8.565998126736e-13       2.058438811852e-16       2.141718082917e-11      -6.938612869806e-13      -9.404081394789e-15 
   74       2.492129194881e-10       5.281672884842e-14      -9.253684208193e-13       2.115374554533e-16       2.072058978120e-11      -6.887137482033e-13      -9.227913126557e-15 
   75       2.527971074335e-10       5.475431478139e-14      -9.957928597013e-13       2.173087119951e-16       2.005391156901e-11      -6.828594805127e-13      -9.052030059385e-15 
   76       2.564303106392e-10       5.671735605451e-14      -1.067815826382e-12       2.231577882650e-16       1.941619868684e-11      -6.763733909969e-13      -8.880515760923e-15 
   77       2.601118217688e-10       5.870433371382e-14      -1.141375841283e-12       2.290848391828e-16       1.880597296015e-11      -6.693388595812e-13      -8.717805102072e-15 
   78       2.638404216546e-10       6.071364305867e-14      -1.216407188454e-12       2.350900378003e-16       1.822120207169e-11      -6.618479907313e-13      -8.568694278586e-15 
   79       2.676143545277e-10       6.274359225943e-14      -1.292839855831e-12       2.411735759670e-16       1.765927608774e-11      -6.540018651559e-13      -8.438350832685e-15 
   80       2.714318831066e-10       6.479246791097e-14      -1.370605401690e-12       2.473356584403e-16       1.711765464700e-11      -6.458970693791e-13      -8.331005579812e-15 
   81       2.752931193767e-10       6.685874784516e-14      -1.449655858720e-12       2.535764825744e-16       1.659598960766e-11      -6.375820366261e-13      -8.245744726704e-15 
   82       2.791984680256e-10       6.894092292628e-14      -1.529948019265e-12       2.598962563037e-16       1.609432990606e-11      -6.290935478204e-13      -8.180001860246e-15 
   83       2.831480610083e-10       7.103743325718e-14      -1.611437849969e-12       2.662952049209e-16       1.561247275193e-11      -6.204697779018e-13      -8.130796970476e-15 
   84       2.871417435151e-10       7.314666803651e-14      -1.694080541785e-12       2.727735716220e-16       1.514995257424e-11      -6.117502934157e-13      -8.094722063029e-15 
   85       2.911790599400e-10       7.526696541594e-14      -1.777830559983e-12       2.793316180507e-16       1.470602996705e-11      -6.029760501025e-13      -8.067926771585e-15 
   86       2.952592398487e-10       7.739661235742e-14      -1.862641694157e-12       2.859696248433e-16       1.427968063537e-11      -5.941893904863e-13      -8.046103970310e-15 
   87       2.993811839465e-10       7.953384449035e-14      -1.948467108232e-12       2.926878921729e-16       1.386958434096e-11      -5.854340414643e-13      -8.024475386299e-15 
   88       3.035434500465e-10       8.167684596885e-14      -2.035259390478e-12       2.994867402945e-16       1.347411384827e-11      -5.767551118960e-13      -7.997777212021e-15 
   89       3.077446171333e-10       8.382377047959e-14      -2.122968488436e-12       3.063665045332e-16       1.309172183181e-11      -5.681911379375e-13      -7.961420448582e-15 
   90       3.119844735893e-10       8.597280835330e-14      -2.211535033469e-12       3.133275181615e-16       1.272219525070e-11      -5.597487942488e-13      -7.915211898174e-15 
   91       3.162629903772e-10       8.812212976676e-14      -2.300896056315e-12       3.203701278270e-16       1.236557829381e-11      -5.514241929028e-13      -7.860193081843e-15 
   92       3.205799512864e-10       9.026986470109e-14      -2.390987027013e-12       3.274946993242e-16       1.202178691380e-11      -5.432103626457e-13      -7.797520637021e-15 
   93       3.249349445658e-10       9.241410311575e-14      -2.481741873219e-12       3.347016180564e-16       1.169060373495e-11      -5.350971273515e-13      -7.728469528932e-15 
   94       3.293273545561e-10       9.455289512272e-14      -2.573092998533e-12       3.419912894964e-16       1.137167296097e-11      -5.270709844762e-13      -7.654436262004e-15 
   95       3.337563533225e-10       9.668425116052e-14      -2.664971300818e-12       3.493641396485e-16       1.106449528283e-11      -5.191149835120e-13      -7.576942091269e-15 
   96       3.382208922866e-10       9.880614216832e-14      -2.757306190523e-12       3.568206155095e-16       1.076842278655e-11      -5.112086044418e-13      -7.497636233779e-15 
   97       3.427196938596e-10       1.009164997601e-13      -2.850025609003e-12       3.643611855302e-16       1.048265386107e-11      -5.033276361928e-13      -7.418299080005e-15 
   98       3.472512430740e-10       1.030132163985e-13      -2.943056046843e-12       3.719863400767e-16       1.020622810603e-11      -4.954440550916e-13      -7.340845405252e-15 
   99       3.518140832955e-10       1.050941948645e-13      -3.036323675693e-12       3.796965930290e-16       9.938246051974e-12      -4.875342009976e-13      -7.266925589456e-15 
  100       3.564077692364e-10       1.071575042844e-13      -3.129757887099e-12       3.874924858358e-16       9.678574838515e-12      -4.796048898380e-13      -7.196657885447e-15 
  101       3.610320340113e-10       1.092012466286e-13      -3.223288291287e-12       3.953745848936e-16       9.427233494656e-12      -4.716707910993e-13      -7.129721717884e-15 
  102       3.656864924792e-10       1.112235101501e-13      -3.316843679781e-12       4.033434809306e-16       9.184174706328e-12      -4.637464394108e-13      -7.065742015193e-15 
  103       3.703706365607e-10       1.132223701558e-13      -3.410352057221e-12       4.113997894812e-16       8.949282449208e-12      -4.558462135768e-13      -7.004287548343e-15 
  104       3.750838305569e-10       1.151958897786e-13      -3.503740673183e-12       4.195441513619e-16       8.722369621539e-12      -4.479843156083e-13      -6.944869269635e-15 
  105       3.798253064673e-10       1.171421207483e-13      -3.596936053998e-12       4.277772331458e-16       8.503175676950e-12      -4.401747497558e-13      -6.886938651479e-15 
  106       3.845941593083e-10       1.190591041641e-13      -3.689864034572e-12       4.360997276382e-16       8.291364257275e-12      -4.324313015410e-13      -6.829886025176e-15 
  107       3.893893424314e-10       1.209448712652e-13      -3.782449790200e-12       4.445123543518e-16       8.086520825373e-12      -4.247675167891e-13      -6.773038919701e-15 
